name:121_UCR_Anomaly_ECG3
trainingsteps:15000
anomalies:1_16000_16100
###
Variable1
-33.0
-33.0
-32.0
-36.0
-35.0
-38.0
-35.0
-36.0
-32.0
-29.0
-25.0
-22.0
-17.0
-14.0
-11.0
-7.0
-9.0
-6.0
-1.0
1.0
6.0
10.0
10.0
14.0
16.0
12.0
11.0
8.0
6.0
8.0
10.0
7.0
5.0
7.0
13.0
10.0
7.0
4.0
6.0
3.0
3.0
4.0
7.0
6.0
2.0
2.0
3.0
3.0
0.0
0.0
3.0
4.0
3.0
2.0
3.0
6.0
4.0
3.0
1.0
0.0
1.0
0.0
0.0
2.0
2.0
3.0
6.0
3.0
0.0
1.0
2.0
3.0
3.0
2.0
0.0
0.0
2.0
5.0
3.0
3.0
4.0
3.0
0.0
2.0
1.0
3.0
1.0
0.0
1.0
3.0
4.0
6.0
4.0
2.0
2.0
3.0
10.0
11.0
10.0
5.0
2.0
1.0
0.0
0.0
1.0
2.0
1.0
0.0
0.0
1.0
2.0
2.0
7.0
13.0
12.0
15.0
26.0
30.0
25.0
29.0
54.0
84.0
108.0
135.0
155.0
166.0
135.0
47.0
-1.0
-15.0
-19.0
-22.0
-24.0
-22.0
-26.0
-30.0
-29.0
-29.0
-26.0
-23.0
-23.0
-26.0
-22.0
-22.0
-25.0
-26.0
-26.0
-24.0
-24.0
-25.0
-25.0
-24.0
-24.0
-24.0
-24.0
-24.0
-25.0
-26.0
-27.0
-26.0
-32.0
-34.0
-32.0
-31.0
-32.0
-32.0
-33.0
-38.0
-33.0
-37.0
-37.0
-37.0
-38.0
-33.0
-32.0
-27.0
-27.0
-22.0
-17.0
-9.0
-5.0
-1.0
0.0
0.0
2.0
6.0
7.0
8.0
8.0
8.0
9.0
11.0
13.0
15.0
15.0
10.0
7.0
5.0
8.0
10.0
8.0
8.0
7.0
7.0
7.0
6.0
4.0
4.0
2.0
5.0
5.0
5.0
4.0
6.0
6.0
4.0
4.0
3.0
3.0
4.0
3.0
3.0
3.0
0.0
3.0
5.0
8.0
6.0
2.0
2.0
3.0
2.0
1.0
1.0
1.0
3.0
5.0
3.0
1.0
2.0
2.0
2.0
5.0
6.0
2.0
0.0
0.0
0.0
0.0
1.0
3.0
4.0
4.0
3.0
1.0
0.0
0.0
2.0
1.0
0.0
0.0
3.0
2.0
4.0
8.0
7.0
3.0
0.0
-2.0
-4.0
-4.0
-3.0
-1.0
0.0
0.0
0.0
0.0
0.0
0.0
4.0
10.0
14.0
20.0
25.0
25.0
24.0
28.0
49.0
80.0
109.0
137.0
150.0
155.0
116.0
40.0
-1.0
-16.0
-21.0
-21.0
-25.0
-26.0
-25.0
-28.0
-25.0
-28.0
-25.0
-28.0
-24.0
-24.0
-21.0
-23.0
-23.0
-23.0
-22.0
-22.0
-23.0
-22.0
-22.0
-26.0
-27.0
-23.0
-20.0
-22.0
-25.0
-26.0
-26.0
-27.0
-29.0
-28.0
-27.0
-29.0
-30.0
-34.0
-34.0
-38.0
-36.0
-32.0
-32.0
-34.0
-31.0
-28.0
-26.0
-28.0
-26.0
-19.0
-18.0
-18.0
-9.0
-2.0
1.0
3.0
6.0
7.0
9.0
11.0
11.0
12.0
17.0
14.0
9.0
8.0
9.0
11.0
11.0
10.0
9.0
8.0
8.0
8.0
8.0
8.0
8.0
8.0
8.0
9.0
6.0
3.0
3.0
7.0
4.0
4.0
6.0
6.0
4.0
4.0
3.0
3.0
4.0
4.0
4.0
4.0
2.0
1.0
4.0
8.0
3.0
4.0
6.0
4.0
2.0
2.0
1.0
1.0
2.0
2.0
2.0
3.0
1.0
0.0
0.0
0.0
1.0
1.0
0.0
0.0
2.0
0.0
0.0
1.0
3.0
0.0
1.0
0.0
0.0
1.0
0.0
0.0
0.0
0.0
1.0
3.0
5.0
6.0
3.0
1.0
0.0
0.0
0.0
0.0
0.0
0.0
0.0
0.0
0.0
-1.0
0.0
7.0
16.0
17.0
14.0
23.0
34.0
33.0
33.0
55.0
83.0
111.0
139.0
158.0
162.0
137.0
59.0
7.0
-6.0
-16.0
-20.0
-20.0
-22.0
-24.0
-23.0
-25.0
-20.0
-22.0
-24.0
-25.0
-24.0
-24.0
-22.0
-22.0
-23.0
-22.0
-19.0
-20.0
-23.0
-24.0
-24.0
-22.0
-23.0
-23.0
-23.0
-23.0
-22.0
-22.0
-26.0
-28.0
-26.0
-25.0
-27.0
-30.0
-34.0
-39.0
-41.0
-40.0
-37.0
-38.0
-36.0
-30.0
-28.0
-26.0
-23.0
-21.0
-18.0
-18.0
-13.0
-6.0
-5.0
0.0
3.0
8.0
8.0
9.0
10.0
18.0
18.0
19.0
21.0
21.0
21.0
21.0
20.0
12.0
5.0
7.0
8.0
6.0
6.0
7.0
4.0
3.0
5.0
5.0
4.0
3.0
3.0
5.0
5.0
8.0
8.0
3.0
0.0
1.0
3.0
3.0
3.0
2.0
3.0
3.0
2.0
3.0
2.0
1.0
2.0
1.0
3.0
3.0
1.0
1.0
2.0
1.0
2.0
1.0
2.0
4.0
2.0
2.0
1.0
1.0
0.0
0.0
0.0
1.0
1.0
2.0
3.0
2.0
1.0
2.0
3.0
1.0
0.0
0.0
1.0
2.0
3.0
4.0
6.0
8.0
12.0
12.0
4.0
1.0
0.0
0.0
2.0
1.0
0.0
0.0
0.0
0.0
0.0
0.0
0.0
11.0
20.0
22.0
26.0
35.0
36.0
33.0
43.0
69.0
98.0
126.0
147.0
162.0
155.0
99.0
30.0
-2.0
-12.0
-19.0
-18.0
-21.0
-21.0
-21.0
-22.0
-22.0
-26.0
-25.0
-24.0
-20.0
-20.0
-20.0
-21.0
-12.0
-17.0
-19.0
-21.0
-20.0
-21.0
-22.0
-22.0
-20.0
-22.0
-20.0
-20.0
-18.0
-19.0
-22.0
-23.0
-23.0
-24.0
-27.0
-29.0
-30.0
-33.0
-34.0
-34.0
-38.0
-41.0
-41.0
-39.0
-36.0
-32.0
-28.0
-26.0
-24.0
-20.0
-15.0
-10.0
-10.0
-4.0
-2.0
0.0
3.0
7.0
7.0
8.0
10.0
11.0
17.0
13.0
9.0
10.0
8.0
10.0
8.0
8.0
8.0
10.0
7.0
6.0
7.0
6.0
5.0
5.0
5.0
4.0
4.0
6.0
6.0
5.0
4.0
4.0
5.0
1.0
1.0
4.0
3.0
1.0
1.0
3.0
0.0
0.0
0.0
0.0
0.0
0.0
0.0
1.0
1.0
0.0
0.0
0.0
0.0
2.0
1.0
-1.0
0.0
1.0
0.0
-2.0
0.0
0.0
0.0
-1.0
0.0
0.0
-1.0
0.0
0.0
0.0
0.0
0.0
0.0
0.0
0.0
0.0
1.0
1.0
2.0
1.0
1.0
5.0
8.0
4.0
0.0
0.0
-3.0
-3.0
0.0
0.0
0.0
-5.0
-3.0
0.0
0.0
-3.0
-2.0
5.0
17.0
19.0
24.0
32.0
32.0
29.0
44.0
72.0
101.0
129.0
147.0
159.0
145.0
80.0
16.0
-10.0
-20.0
-24.0
-27.0
-27.0
-24.0
-24.0
-26.0
-27.0
-29.0
-29.0
-28.0
-24.0
-24.0
-24.0
-24.0
-26.0
-28.0
-29.0
-26.0
-25.0
-28.0
-29.0
-25.0
-24.0
-24.0
-30.0
-32.0
-31.0
-32.0
-30.0
-31.0
-33.0
-35.0
-37.0
-39.0
-43.0
-44.0
-45.0
-46.0
-46.0
-45.0
-46.0
-45.0
-42.0
-39.0
-36.0
-30.0
-28.0
-25.0
-22.0
-12.0
-8.0
-7.0
-3.0
0.0
0.0
1.0
4.0
4.0
5.0
7.0
8.0
10.0
8.0
8.0
7.0
7.0
4.0
4.0
4.0
4.0
1.0
1.0
2.0
4.0
5.0
3.0
3.0
2.0
1.0
0.0
1.0
0.0
0.0
-2.0
-2.0
-1.0
0.0
0.0
0.0
1.0
0.0
0.0
0.0
1.0
-2.0
-3.0
-2.0
0.0
0.0
-2.0
-2.0
-1.0
-1.0
0.0
-2.0
-1.0
-2.0
-3.0
-2.0
-2.0
-3.0
-1.0
-1.0
-2.0
-1.0
0.0
0.0
0.0
0.0
-2.0
-6.0
-6.0
-2.0
0.0
-1.0
-3.0
-3.0
-3.0
-3.0
-2.0
-1.0
0.0
2.0
5.0
3.0
4.0
0.0
-3.0
-3.0
-2.0
-2.0
-3.0
-7.0
-3.0
-4.0
-3.0
-3.0
-3.0
0.0
6.0
10.0
9.0
18.0
24.0
26.0
24.0
42.0
68.0
93.0
120.0
140.0
153.0
139.0
78.0
16.0
-11.0
-22.0
-26.0
-29.0
-29.0
-29.0
-27.0
-26.0
-30.0
-34.0
-32.0
-29.0
-28.0
-25.0
-24.0
-27.0
-28.0
-24.0
-29.0
-28.0
-27.0
-27.0
-27.0
-19.0
-16.0
-20.0
-25.0
-22.0
-23.0
-27.0
-29.0
-26.0
-24.0
-27.0
-31.0
-30.0
-33.0
-39.0
-41.0
-41.0
-41.0
-41.0
-40.0
-37.0
-34.0
-33.0
-33.0
-29.0
-25.0
-20.0
-19.0
-15.0
-9.0
-6.0
-1.0
0.0
1.0
4.0
8.0
9.0
11.0
9.0
8.0
9.0
11.0
9.0
8.0
7.0
7.0
8.0
7.0
6.0
7.0
8.0
5.0
5.0
6.0
4.0
2.0
3.0
5.0
7.0
6.0
6.0
7.0
7.0
5.0
4.0
4.0
5.0
5.0
3.0
3.0
3.0
1.0
4.0
5.0
4.0
4.0
3.0
3.0
3.0
4.0
5.0
7.0
5.0
3.0
2.0
4.0
5.0
5.0
7.0
7.0
3.0
3.0
3.0
3.0
4.0
6.0
7.0
5.0
7.0
6.0
4.0
4.0
5.0
6.0
5.0
6.0
6.0
5.0
6.0
6.0
6.0
9.0
12.0
13.0
16.0
11.0
5.0
5.0
1.0
6.0
7.0
4.0
3.0
1.0
1.0
1.0
3.0
2.0
3.0
18.0
24.0
25.0
38.0
44.0
37.0
32.0
49.0
77.0
109.0
139.0
154.0
165.0
141.0
76.0
19.0
-5.0
-16.0
-22.0
-20.0
-21.0
-24.0
-24.0
-24.0
-24.0
-24.0
-23.0
-22.0
-23.0
-24.0
-23.0
-21.0
-20.0
-21.0
-22.0
-23.0
-22.0
-18.0
-21.0
-20.0
-20.0
-20.0
-21.0
-21.0
-23.0
-24.0
-24.0
-24.0
-27.0
-27.0
-26.0
-30.0
-35.0
-37.0
-33.0
-31.0
-32.0
-31.0
-31.0
-29.0
-29.0
-29.0
-26.0
-21.0
-17.0
-13.0
-11.0
-8.0
-2.0
1.0
4.0
4.0
5.0
11.0
19.0
14.0
16.0
14.0
17.0
18.0
17.0
18.0
14.0
16.0
14.0
20.0
14.0
12.0
13.0
10.0
8.0
10.0
8.0
4.0
3.0
4.0
4.0
6.0
6.0
3.0
3.0
3.0
3.0
3.0
3.0
2.0
2.0
0.0
0.0
0.0
0.0
0.0
2.0
1.0
0.0
0.0
0.0
3.0
3.0
3.0
0.0
0.0
0.0
1.0
2.0
3.0
2.0
1.0
0.0
0.0
1.0
2.0
0.0
0.0
1.0
3.0
3.0
2.0
2.0
1.0
2.0
4.0
2.0
0.0
0.0
0.0
2.0
3.0
4.0
4.0
6.0
9.0
9.0
5.0
0.0
0.0
0.0
2.0
2.0
1.0
0.0
0.0
0.0
-1.0
0.0
0.0
5.0
19.0
21.0
22.0
32.0
40.0
33.0
37.0
58.0
85.0
115.0
143.0
156.0
168.0
126.0
51.0
5.0
-9.0
-12.0
-15.0
-20.0
-23.0
-23.0
-21.0
-21.0
-23.0
-24.0
-22.0
-21.0
-23.0
-24.0
-24.0
-24.0
-23.0
-21.0
-20.0
-20.0
-21.0
-22.0
-21.0
-22.0
-22.0
-22.0
-22.0
-23.0
-24.0
-23.0
-21.0
-22.0
-26.0
-27.0
-28.0
-29.0
-31.0
-37.0
-39.0
-40.0
-39.0
-39.0
-39.0
-37.0
-34.0
-31.0
-28.0
-23.0
-17.0
-12.0
-6.0
-4.0
-2.0
1.0
4.0
8.0
6.0
5.0
8.0
10.0
10.0
12.0
11.0
11.0
12.0
11.0
8.0
7.0
4.0
7.0
11.0
6.0
5.0
2.0
2.0
4.0
2.0
3.0
4.0
4.0
4.0
5.0
2.0
3.0
4.0
2.0
2.0
1.0
1.0
2.0
1.0
0.0
0.0
0.0
0.0
1.0
2.0
1.0
0.0
0.0
0.0
0.0
2.0
2.0
2.0
1.0
0.0
0.0
0.0
0.0
0.0
2.0
2.0
0.0
-1.0
-2.0
-1.0
0.0
0.0
0.0
2.0
0.0
0.0
0.0
0.0
0.0
0.0
1.0
2.0
1.0
0.0
0.0
2.0
5.0
8.0
8.0
6.0
3.0
0.0
-2.0
-2.0
0.0
0.0
0.0
0.0
0.0
-1.0
-1.0
-5.0
-1.0
8.0
22.0
14.0
23.0
34.0
34.0
27.0
43.0
71.0
99.0
137.0
153.0
160.0
148.0
76.0
16.0
-8.0
-17.0
-20.0
-23.0
-23.0
-23.0
-24.0
-25.0
-23.0
-23.0
-24.0
-23.0
-19.0
-19.0
-24.0
-25.0
-23.0
-23.0
-23.0
-23.0
-24.0
-23.0
-20.0
-20.0
-23.0
-22.0
-22.0
-23.0
-28.0
-24.0
-26.0
-28.0
-27.0
-34.0
-33.0
-32.0
-39.0
-39.0
-40.0
-42.0
-41.0
-42.0
-44.0
-42.0
-41.0
-37.0
-31.0
-23.0
-20.0
-19.0
-13.0
-10.0
-9.0
-4.0
1.0
1.0
0.0
4.0
7.0
8.0
12.0
12.0
12.0
11.0
9.0
6.0
6.0
7.0
3.0
2.0
4.0
1.0
0.0
0.0
1.0
1.0
1.0
2.0
0.0
0.0
0.0
2.0
0.0
0.0
0.0
0.0
-1.0
0.0
-1.0
-1.0
-1.0
0.0
0.0
1.0
1.0
0.0
0.0
-2.0
-3.0
-2.0
-1.0
-1.0
-3.0
-4.0
-2.0
0.0
0.0
0.0
0.0
0.0
0.0
0.0
0.0
0.0
0.0
0.0
0.0
0.0
2.0
0.0
0.0
0.0
0.0
0.0
0.0
0.0
0.0
1.0
0.0
0.0
0.0
0.0
0.0
0.0
0.0
3.0
2.0
0.0
-3.0
-4.0
0.0
1.0
0.0
0.0
-1.0
0.0
0.0
0.0
-2.0
0.0
5.0
13.0
9.0
12.0
24.0
26.0
23.0
27.0
51.0
85.0
115.0
142.0
153.0
161.0
106.0
34.0
-2.0
-17.0
-22.0
-25.0
-28.0
-25.0
-23.0
-25.0
-30.0
-30.0
-27.0
-26.0
-28.0
-25.0
-23.0
-23.0
-24.0
-23.0
-23.0
-22.0
-22.0
-23.0
-23.0
-25.0
-25.0
-24.0
-24.0
-24.0
-25.0
-28.0
-24.0
-25.0
-25.0
-24.0
-32.0
-35.0
-33.0
-31.0
-31.0
-36.0
-38.0
-39.0
-40.0
-36.0
-35.0
-34.0
-30.0
-29.0
-25.0
-22.0
-14.0
-9.0
-4.0
-2.0
0.0
1.0
3.0
6.0
9.0
10.0
11.0
14.0
20.0
22.0
19.0
13.0
11.0
11.0
13.0
17.0
12.0
11.0
9.0
8.0
8.0
8.0
9.0
11.0
8.0
6.0
4.0
4.0
5.0
7.0
8.0
8.0
8.0
9.0
7.0
7.0
6.0
7.0
8.0
8.0
6.0
4.0
5.0
5.0
5.0
4.0
4.0
4.0
3.0
1.0
1.0
1.0
1.0
2.0
1.0
4.0
4.0
5.0
3.0
2.0
0.0
0.0
0.0
0.0
0.0
3.0
0.0
0.0
0.0
0.0
3.0
4.0
3.0
0.0
1.0
1.0
2.0
0.0
2.0
5.0
7.0
7.0
8.0
5.0
3.0
1.0
0.0
0.0
0.0
0.0
0.0
0.0
0.0
0.0
-1.0
-1.0
7.0
17.0
14.0
17.0
30.0
32.0
31.0
36.0
63.0
92.0
123.0
153.0
163.0
173.0
111.0
31.0
0.0
-12.0
-18.0
-22.0
-25.0
-25.0
-21.0
-21.0
-24.0
-28.0
-29.0
-27.0
-23.0
-21.0
-22.0
-22.0
-21.0
-22.0
-24.0
-23.0
-20.0
-20.0
-24.0
-23.0
-21.0
-25.0
-27.0
-24.0
-23.0
-24.0
-23.0
-21.0
-24.0
-32.0
-33.0
-33.0
-38.0
-35.0
-37.0
-39.0
-41.0
-41.0
-39.0
-37.0
-35.0
-28.0
-25.0
-24.0
-24.0
-23.0
-20.0
-11.0
-5.0
-1.0
0.0
1.0
4.0
7.0
10.0
14.0
18.0
18.0
14.0
11.0
11.0
11.0
9.0
10.0
9.0
9.0
7.0
5.0
6.0
7.0
6.0
5.0
4.0
0.0
0.0
2.0
3.0
2.0
1.0
2.0
2.0
3.0
0.0
0.0
2.0
0.0
0.0
0.0
0.0
0.0
0.0
0.0
2.0
1.0
0.0
0.0
0.0
0.0
0.0
2.0
2.0
0.0
0.0
0.0
0.0
0.0
0.0
0.0
-2.0
-1.0
0.0
0.0
-1.0
0.0
0.0
0.0
0.0
0.0
0.0
0.0
0.0
-2.0
-2.0
0.0
-1.0
2.0
0.0
1.0
4.0
4.0
5.0
6.0
3.0
0.0
-2.0
-1.0
-1.0
0.0
-1.0
-3.0
-3.0
-3.0
-1.0
0.0
0.0
2.0
9.0
10.0
18.0
30.0
32.0
30.0
39.0
70.0
98.0
125.0
148.0
156.0
158.0
95.0
19.0
-4.0
-16.0
-22.0
-22.0
-23.0
-24.0
-23.0
-28.0
-27.0
-27.0
-26.0
-25.0
-21.0
-22.0
-23.0
-22.0
-23.0
-24.0
-23.0
-24.0
-26.0
-28.0
-26.0
-23.0
-22.0
-22.0
-24.0
-27.0
-26.0
-25.0
-25.0
-24.0
-26.0
-31.0
-34.0
-38.0
-36.0
-35.0
-39.0
-40.0
-35.0
-37.0
-36.0
-32.0
-32.0
-40.0
-29.0
-29.0
-19.0
-20.0
-21.0
-11.0
-8.0
-5.0
-2.0
4.0
6.0
3.0
6.0
15.0
19.0
15.0
12.0
16.0
19.0
17.0
18.0
16.0
10.0
5.0
7.0
8.0
4.0
5.0
7.0
9.0
8.0
8.0
7.0
7.0
6.0
3.0
6.0
5.0
3.0
3.0
4.0
7.0
2.0
2.0
3.0
4.0
0.0
0.0
3.0
4.0
3.0
3.0
4.0
2.0
0.0
0.0
0.0
0.0
0.0
0.0
0.0
1.0
0.0
0.0
0.0
0.0
0.0
0.0
1.0
0.0
-2.0
0.0
0.0
2.0
0.0
0.0
0.0
-1.0
0.0
4.0
0.0
-3.0
-2.0
0.0
2.0
1.0
1.0
1.0
0.0
0.0
3.0
7.0
3.0
-6.0
-4.0
-2.0
0.0
0.0
0.0
-1.0
-1.0
-1.0
0.0
0.0
0.0
4.0
10.0
10.0
15.0
26.0
30.0
29.0
35.0
54.0
85.0
118.0
142.0
156.0
158.0
121.0
40.0
-2.0
-15.0
-22.0
-23.0
-23.0
-26.0
-25.0
-25.0
-23.0
-24.0
-30.0
-29.0
-27.0
-28.0
-26.0
-23.0
-23.0
-19.0
-22.0
-24.0
-26.0
-25.0
-23.0
-26.0
-27.0
-26.0
-25.0
-23.0
-24.0
-26.0
-25.0
-25.0
-27.0
-30.0
-31.0
-29.0
-33.0
-38.0
-37.0
-41.0
-41.0
-39.0
-34.0
-40.0
-35.0
-29.0
-32.0
-30.0
-25.0
-24.0
-21.0
-15.0
-8.0
-4.0
-3.0
0.0
1.0
4.0
7.0
8.0
10.0
11.0
11.0
9.0
10.0
11.0
9.0
9.0
9.0
6.0
6.0
7.0
7.0
5.0
4.0
4.0
5.0
7.0
7.0
6.0
5.0
5.0
3.0
0.0
0.0
3.0
3.0
2.0
0.0
2.0
4.0
4.0
0.0
0.0
2.0
2.0
2.0
2.0
2.0
2.0
0.0
0.0
1.0
3.0
2.0
4.0
4.0
3.0
1.0
1.0
0.0
0.0
0.0
0.0
0.0
0.0
1.0
2.0
3.0
2.0
2.0
4.0
4.0
6.0
6.0
4.0
0.0
0.0
0.0
2.0
3.0
4.0
3.0
0.0
3.0
6.0
8.0
8.0
8.0
8.0
5.0
0.0
0.0
3.0
3.0
2.0
2.0
0.0
0.0
0.0
0.0
1.0
3.0
6.0
14.0
16.0
20.0
28.0
26.0
24.0
35.0
66.0
97.0
125.0
147.0
156.0
155.0
101.0
27.0
-3.0
-16.0
-21.0
-20.0
-20.0
-23.0
-24.0
-21.0
-21.0
-24.0
-26.0
-23.0
-23.0
-22.0
-22.0
-22.0
-21.0
-20.0
-16.0
-18.0
-20.0
-20.0
-20.0
-21.0
-20.0
-21.0
-21.0
-21.0
-22.0
-24.0
-25.0
-24.0
-24.0
-25.0
-24.0
-25.0
-30.0
-33.0
-36.0
-34.0
-34.0
-35.0
-31.0
-29.0
-30.0
-26.0
-23.0
-22.0
-25.0
-15.0
-7.0
-5.0
-1.0
0.0
1.0
5.0
6.0
9.0
19.0
22.0
21.0
23.0
24.0
21.0
21.0
22.0
20.0
14.0
11.0
10.0
9.0
8.0
8.0
8.0
7.0
6.0
5.0
6.0
7.0
5.0
4.0
5.0
8.0
7.0
6.0
2.0
1.0
0.0
2.0
4.0
4.0
3.0
2.0
4.0
4.0
1.0
1.0
4.0
4.0
2.0
2.0
1.0
1.0
0.0
2.0
1.0
0.0
2.0
1.0
0.0
0.0
1.0
2.0
3.0
3.0
1.0
0.0
0.0
0.0
0.0
0.0
1.0
0.0
0.0
0.0
2.0
2.0
2.0
3.0
4.0
2.0
-1.0
-1.0
1.0
1.0
4.0
4.0
7.0
8.0
4.0
0.0
-1.0
-2.0
0.0
0.0
0.0
0.0
0.0
0.0
2.0
1.0
0.0
4.0
15.0
14.0
19.0
29.0
33.0
29.0
34.0
57.0
85.0
115.0
142.0
155.0
159.0
127.0
47.0
3.0
-8.0
-16.0
-20.0
-22.0
-24.0
-24.0
-24.0
-24.0
-24.0
-25.0
-25.0
-26.0
-27.0
-26.0
-24.0
-23.0
-23.0
-22.0
-22.0
-23.0
-24.0
-22.0
-22.0
-23.0
-24.0
-25.0
-24.0
-24.0
-23.0
-25.0
-28.0
-30.0
-31.0
-32.0
-32.0
-36.0
-37.0
-36.0
-39.0
-41.0
-41.0
-43.0
-43.0
-40.0
-37.0
-29.0
-30.0
-28.0
-21.0
-19.0
-13.0
-5.0
-4.0
0.0
0.0
2.0
5.0
8.0
11.0
16.0
18.0
17.0
9.0
7.0
8.0
8.0
8.0
9.0
7.0
6.0
6.0
5.0
5.0
3.0
3.0
4.0
3.0
2.0
2.0
4.0
4.0
2.0
0.0
0.0
2.0
1.0
3.0
3.0
2.0
2.0
1.0
0.0
0.0
1.0
2.0
4.0
1.0
0.0
0.0
0.0
0.0
0.0
0.0
0.0
0.0
0.0
1.0
2.0
0.0
-2.0
-1.0
0.0
2.0
2.0
0.0
-2.0
-1.0
0.0
0.0
0.0
-1.0
-1.0
0.0
0.0
0.0
0.0
0.0
0.0
0.0
3.0
6.0
8.0
6.0
0.0
-1.0
-1.0
-2.0
-1.0
-1.0
-1.0
-1.0
0.0
-1.0
-2.0
0.0
-1.0
4.0
16.0
13.0
19.0
31.0
38.0
32.0
36.0
58.0
88.0
120.0
145.0
157.0
158.0
115.0
41.0
1.0
-11.0
-18.0
-22.0
-24.0
-25.0
-23.0
-23.0
-24.0
-27.0
-28.0
-26.0
-23.0
-20.0
-26.0
-25.0
-24.0
-24.0
-24.0
-24.0
-24.0
-25.0
-23.0
-22.0
-21.0
-24.0
-24.0
-25.0
-26.0
-25.0
-24.0
-25.0
-28.0
-29.0
-26.0
-29.0
-32.0
-36.0
-40.0
-42.0
-43.0
-44.0
-42.0
-36.0
-30.0
-29.0
-30.0
-27.0
-24.0
-21.0
-14.0
-10.0
-5.0
-2.0
1.0
4.0
4.0
4.0
7.0
12.0
20.0
19.0
20.0
17.0
14.0
9.0
10.0
7.0
9.0
10.0
10.0
9.0
9.0
7.0
7.0
5.0
3.0
3.0
5.0
4.0
3.0
1.0
0.0
1.0
2.0
4.0
4.0
4.0
2.0
0.0
0.0
0.0
1.0
0.0
2.0
1.0
0.0
0.0
0.0
-1.0
-1.0
1.0
1.0
0.0
0.0
0.0
0.0
1.0
2.0
0.0
0.0
0.0
0.0
0.0
0.0
2.0
0.0
0.0
0.0
0.0
0.0
0.0
0.0
0.0
0.0
0.0
1.0
2.0
1.0
1.0
0.0
0.0
0.0
1.0
2.0
5.0
8.0
7.0
4.0
2.0
-1.0
-2.0
-1.0
0.0
0.0
-1.0
0.0
0.0
-1.0
-2.0
-4.0
-1.0
11.0
12.0
16.0
30.0
38.0
33.0
32.0
51.0
80.0
109.0
136.0
150.0
161.0
129.0
59.0
8.0
-14.0
-23.0
-24.0
-23.0
-24.0
-25.0
-24.0
-25.0
-28.0
-25.0
-26.0
-28.0
-27.0
-27.0
-28.0
-25.0
-23.0
-26.0
-26.0
-28.0
-26.0
-27.0
-28.0
-30.0
-26.0
-26.0
-24.0
-28.0
-30.0
-31.0
-29.0
-31.0
-32.0
-37.0
-40.0
-41.0
-38.0
-42.0
-44.0
-42.0
-38.0
-39.0
-41.0
-39.0
-34.0
-32.0
-33.0
-31.0
-26.0
-21.0
-20.0
-17.0
-7.0
-1.0
0.0
0.0
3.0
5.0
6.0
8.0
8.0
11.0
9.0
6.0
6.0
5.0
5.0
7.0
4.0
5.0
4.0
3.0
0.0
3.0
4.0
2.0
4.0
4.0
1.0
0.0
0.0
1.0
1.0
0.0
0.0
3.0
3.0
1.0
0.0
1.0
0.0
0.0
0.0
0.0
0.0
1.0
1.0
2.0
3.0
2.0
-1.0
1.0
0.0
3.0
2.0
-1.0
0.0
0.0
0.0
3.0
3.0
1.0
1.0
1.0
0.0
3.0
3.0
0.0
0.0
0.0
0.0
1.0
1.0
0.0
0.0
1.0
2.0
4.0
4.0
4.0
3.0
2.0
1.0
2.0
3.0
7.0
8.0
7.0
3.0
0.0
1.0
0.0
1.0
0.0
3.0
2.0
0.0
2.0
1.0
0.0
1.0
14.0
20.0
14.0
22.0
33.0
37.0
27.0
39.0
69.0
98.0
129.0
149.0
161.0
151.0
92.0
28.0
-6.0
-17.0
-22.0
-25.0
-23.0
-21.0
-22.0
-22.0
-24.0
-25.0
-23.0
-22.0
-22.0
-19.0
-23.0
-26.0
-22.0
-20.0
-20.0
-17.0
-23.0
-22.0
-23.0
-22.0
-21.0
-18.0
-21.0
-24.0
-21.0
-22.0
-23.0
-24.0
-25.0
-24.0
-24.0
-28.0
-30.0
-31.0
-29.0
-30.0
-32.0
-30.0
-30.0
-32.0
-29.0
-25.0
-24.0
-23.0
-21.0
-14.0
-8.0
-9.0
-6.0
-1.0
1.0
4.0
8.0
9.0
12.0
15.0
21.0
21.0
21.0
21.0
22.0
22.0
21.0
20.0
14.0
12.0
9.0
8.0
8.0
9.0
11.0
12.0
9.0
12.0
8.0
5.0
4.0
4.0
5.0
4.0
2.0
2.0
4.0
3.0
1.0
2.0
4.0
4.0
3.0
1.0
0.0
1.0
2.0
0.0
3.0
3.0
1.0
1.0
1.0
2.0
1.0
0.0
0.0
0.0
0.0
0.0
0.0
0.0
0.0
1.0
1.0
1.0
0.0
-2.0
0.0
0.0
2.0
0.0
-3.0
-1.0
0.0
0.0
-1.0
0.0
1.0
0.0
-1.0
0.0
0.0
1.0
7.0
11.0
7.0
2.0
0.0
-3.0
-2.0
-2.0
-2.0
0.0
-3.0
-3.0
-2.0
0.0
0.0
0.0
-2.0
2.0
12.0
16.0
20.0
28.0
33.0
28.0
43.0
69.0
97.0
129.0
149.0
157.0
149.0
83.0
18.0
-6.0
-17.0
-21.0
-22.0
-25.0
-26.0
-26.0
-26.0
-26.0
-27.0
-27.0
-26.0
-26.0
-21.0
-21.0
-24.0
-27.0
-27.0
-25.0
-24.0
-24.0
-24.0
-25.0
-23.0
-23.0
-22.0
-24.0
-22.0
-23.0
-23.0
-26.0
-30.0
-29.0
-29.0
-29.0
-34.0
-36.0
-35.0
-38.0
-38.0
-34.0
-34.0
-35.0
-36.0
-30.0
-28.0
-27.0
-24.0
-22.0
-17.0
-13.0
-10.0
-5.0
-2.0
-1.0
0.0
4.0
8.0
10.0
12.0
13.0
11.0
12.0
15.0
20.0
17.0
9.0
8.0
8.0
10.0
9.0
9.0
10.0
10.0
10.0
8.0
6.0
10.0
10.0
9.0
8.0
7.0
6.0
6.0
2.0
1.0
2.0
3.0
3.0
1.0
0.0
0.0
0.0
1.0
1.0
2.0
1.0
1.0
1.0
0.0
0.0
0.0
1.0
2.0
1.0
0.0
0.0
0.0
1.0
3.0
1.0
0.0
2.0
0.0
-1.0
0.0
0.0
0.0
0.0
0.0
0.0
0.0
1.0
0.0
0.0
1.0
1.0
0.0
0.0
0.0
0.0
0.0
0.0
1.0
3.0
5.0
8.0
10.0
6.0
0.0
0.0
-1.0
-2.0
-1.0
-3.0
-3.0
-3.0
-4.0
-3.0
-3.0
-2.0
0.0
9.0
19.0
17.0
27.0
33.0
34.0
25.0
43.0
67.0
98.0
132.0
150.0
158.0
158.0
83.0
18.0
-3.0
-15.0
-22.0
-24.0
-24.0
-24.0
-24.0
-25.0
-24.0
-24.0
-24.0
-24.0
-24.0
-22.0
-22.0
-23.0
-21.0
-20.0
-20.0
-24.0
-22.0
-20.0
-23.0
-23.0
-23.0
-22.0
-22.0
-23.0
-22.0
-23.0
-23.0
-27.0
-27.0
-27.0
-26.0
-31.0
-34.0
-38.0
-38.0
-33.0
-37.0
-39.0
-36.0
-33.0
-31.0
-29.0
-26.0
-21.0
-16.0
-12.0
-9.0
-4.0
-1.0
0.0
0.0
4.0
7.0
8.0
9.0
14.0
19.0
20.0
21.0
19.0
21.0
20.0
15.0
10.0
10.0
10.0
6.0
5.0
7.0
5.0
5.0
3.0
2.0
4.0
7.0
4.0
1.0
3.0
5.0
6.0
4.0
4.0
5.0
2.0
1.0
0.0
0.0
0.0
0.0
1.0
1.0
3.0
3.0
1.0
2.0
3.0
3.0
2.0
0.0
0.0
0.0
0.0
2.0
1.0
-1.0
0.0
1.0
1.0
1.0
2.0
0.0
0.0
1.0
0.0
0.0
0.0
0.0
1.0
0.0
-2.0
0.0
2.0
2.0
0.0
0.0
0.0
0.0
-1.0
-1.0
0.0
2.0
6.0
6.0
5.0
4.0
2.0
0.0
0.0
-1.0
0.0
0.0
-1.0
-4.0
-2.0
-3.0
-3.0
-4.0
-2.0
2.0
12.0
16.0
13.0
26.0
29.0
27.0
27.0
50.0
76.0
113.0
140.0
150.0
164.0
119.0
44.0
2.0
-13.0
-22.0
-25.0
-23.0
-21.0
-24.0
-28.0
-26.0
-25.0
-25.0
-25.0
-25.0
-26.0
-25.0
-23.0
-24.0
-26.0
-25.0
-24.0
-25.0
-26.0
-24.0
-24.0
-24.0
-24.0
-25.0
-23.0
-24.0
-24.0
-24.0
-31.0
-31.0
-32.0
-32.0
-32.0
-38.0
-39.0
-37.0
-41.0
-38.0
-37.0
-37.0
-38.0
-34.0
-35.0
-33.0
-29.0
-27.0
-24.0
-17.0
-9.0
-7.0
-4.0
0.0
0.0
1.0
4.0
7.0
8.0
8.0
9.0
9.0
9.0
9.0
7.0
5.0
6.0
10.0
9.0
7.0
6.0
4.0
4.0
4.0
5.0
5.0
5.0
6.0
5.0
5.0
6.0
3.0
3.0
3.0
3.0
3.0
4.0
2.0
1.0
0.0
0.0
0.0
1.0
2.0
4.0
2.0
1.0
0.0
0.0
0.0
0.0
1.0
1.0
0.0
0.0
1.0
1.0
0.0
0.0
0.0
0.0
-1.0
0.0
0.0
-1.0
0.0
2.0
0.0
0.0
1.0
0.0
0.0
-2.0
-1.0
-1.0
0.0
0.0
0.0
0.0
1.0
2.0
0.0
0.0
1.0
1.0
2.0
4.0
4.0
6.0
5.0
1.0
0.0
0.0
0.0
0.0
0.0
0.0
0.0
1.0
4.0
4.0
-2.0
0.0
8.0
21.0
22.0
25.0
28.0
27.0
25.0
48.0
77.0
106.0
139.0
158.0
163.0
144.0
67.0
11.0
-7.0
-18.0
-21.0
-24.0
-26.0
-25.0
-23.0
-23.0
-22.0
-20.0
-21.0
-23.0
-23.0
-22.0
-22.0
-24.0
-24.0
-23.0
-24.0
-23.0
-23.0
-23.0
-22.0
-21.0
-21.0
-21.0
-20.0
-23.0
-22.0
-19.0
-26.0
-29.0
-29.0
-29.0
-31.0
-32.0
-33.0
-29.0
-30.0
-31.0
-31.0
-29.0
-32.0
-33.0
-29.0
-27.0
-25.0
-18.0
-13.0
-12.0
-10.0
-8.0
-4.0
0.0
2.0
5.0
7.0
9.0
12.0
15.0
18.0
17.0
14.0
19.0
18.0
15.0
20.0
17.0
12.0
17.0
12.0
13.0
14.0
16.0
8.0
6.0
7.0
6.0
3.0
3.0
5.0
6.0
4.0
3.0
2.0
2.0
3.0
4.0
3.0
3.0
4.0
1.0
0.0
1.0
2.0
1.0
2.0
2.0
2.0
3.0
3.0
3.0
2.0
2.0
2.0
1.0
0.0
0.0
2.0
2.0
0.0
0.0
3.0
0.0
0.0
0.0
0.0
2.0
2.0
1.0
1.0
3.0
2.0
0.0
2.0
1.0
2.0
3.0
1.0
0.0
0.0
3.0
1.0
2.0
5.0
7.0
8.0
9.0
6.0
1.0
0.0
0.0
0.0
0.0
1.0
0.0
-1.0
0.0
1.0
1.0
0.0
2.0
13.0
21.0
25.0
35.0
42.0
32.0
35.0
65.0
94.0
117.0
148.0
160.0
176.0
125.0
42.0
2.0
-9.0
-18.0
-21.0
-20.0
-22.0
-23.0
-24.0
-21.0
-18.0
-20.0
-22.0
-23.0
-24.0
-24.0
-23.0
-21.0
-20.0
-21.0
-24.0
-23.0
-22.0
-21.0
-21.0
-22.0
-20.0
-20.0
-22.0
-22.0
-22.0
-24.0
-25.0
-25.0
-25.0
-29.0
-32.0
-32.0
-31.0
-31.0
-36.0
-40.0
-41.0
-41.0
-39.0
-37.0
-38.0
-35.0
-31.0
-27.0
-21.0
-13.0
-8.0
-4.0
-1.0
0.0
2.0
5.0
8.0
10.0
8.0
8.0
10.0
12.0
12.0
7.0
5.0
7.0
8.0
5.0
5.0
10.0
8.0
5.0
4.0
4.0
4.0
4.0
4.0
4.0
5.0
4.0
4.0
4.0
5.0
2.0
2.0
5.0
3.0
3.0
1.0
0.0
2.0
3.0
3.0
4.0
3.0
3.0
1.0
0.0
0.0
2.0
1.0
2.0
4.0
2.0
0.0
0.0
0.0
1.0
3.0
1.0
0.0
0.0
0.0
1.0
2.0
1.0
2.0
0.0
0.0
0.0
0.0
0.0
0.0
0.0
0.0
0.0
0.0
0.0
1.0
0.0
0.0
0.0
1.0
0.0
2.0
5.0
7.0
9.0
7.0
3.0
2.0
0.0
0.0
0.0
0.0
0.0
0.0
-1.0
-1.0
1.0
0.0
0.0
5.0
14.0
18.0
27.0
39.0
40.0
31.0
45.0
73.0
103.0
137.0
156.0
161.0
167.0
82.0
14.0
-2.0
-12.0
-20.0
-22.0
-23.0
-24.0
-24.0
-21.0
-20.0
-22.0
-24.0
-25.0
-24.0
-22.0
-20.0
-21.0
-22.0
-22.0
-22.0
-22.0
-22.0
-24.0
-23.0
-22.0
-21.0
-22.0
-23.0
-20.0
-20.0
-22.0
-24.0
-25.0
-29.0
-30.0
-27.0
-32.0
-35.0
-37.0
-39.0
-41.0
-41.0
-41.0
-41.0
-41.0
-35.0
-33.0
-32.0
-27.0
-23.0
-21.0
-20.0
-17.0
-8.0
-1.0
0.0
3.0
5.0
6.0
9.0
10.0
11.0
12.0
12.0
13.0
10.0
9.0
9.0
9.0
9.0
9.0
9.0
6.0
6.0
8.0
7.0
5.0
5.0
5.0
8.0
7.0
3.0
6.0
7.0
5.0
3.0
4.0
3.0
3.0
2.0
3.0
2.0
3.0
4.0
4.0
3.0
3.0
3.0
3.0
3.0
2.0
2.0
3.0
2.0
0.0
0.0
1.0
3.0
2.0
1.0
1.0
1.0
2.0
0.0
0.0
0.0
0.0
0.0
0.0
0.0
-2.0
-1.0
0.0
0.0
0.0
0.0
-1.0
-2.0
0.0
0.0
-1.0
-3.0
-3.0
-2.0
-2.0
0.0
0.0
1.0
2.0
3.0
3.0
0.0
-3.0
-3.0
-3.0
-4.0
-4.0
-3.0
-3.0
-3.0
-3.0
-4.0
-3.0
-1.0
3.0
11.0
11.0
17.0
28.0
26.0
24.0
37.0
63.0
93.0
123.0
147.0
152.0
159.0
84.0
14.0
-10.0
-21.0
-22.0
-23.0
-28.0
-29.0
-29.0
-29.0
-30.0
-29.0
-26.0
-25.0
-27.0
-27.0
-25.0
-24.0
-25.0
-25.0
-23.0
-25.0
-28.0
-26.0
-24.0
-24.0
-24.0
-26.0
-25.0
-24.0
-25.0
-29.0
-29.0
-29.0
-29.0
-32.0
-35.0
-35.0
-37.0
-43.0
-42.0
-42.0
-44.0
-44.0
-44.0
-42.0
-39.0
-39.0
-32.0
-27.0
-25.0
-24.0
-15.0
-9.0
-9.0
-7.0
-3.0
-2.0
1.0
5.0
7.0
5.0
7.0
10.0
12.0
10.0
8.0
8.0
8.0
8.0
8.0
7.0
5.0
3.0
5.0
7.0
6.0
4.0
5.0
4.0
3.0
2.0
5.0
3.0
3.0
4.0
4.0
4.0
4.0
0.0
2.0
3.0
3.0
0.0
0.0
4.0
2.0
1.0
1.0
3.0
4.0
5.0
4.0
3.0
1.0
0.0
0.0
0.0
0.0
1.0
2.0
0.0
0.0
0.0
0.0
0.0
0.0
0.0
0.0
0.0
0.0
0.0
0.0
0.0
1.0
0.0
0.0
0.0
0.0
0.0
0.0
3.0
2.0
0.0
-2.0
0.0
1.0
0.0
0.0
3.0
4.0
4.0
4.0
1.0
0.0
-1.0
-1.0
1.0
0.0
-2.0
-3.0
-2.0
0.0
0.0
0.0
0.0
5.0
11.0
12.0
21.0
36.0
38.0
29.0
41.0
73.0
99.0
126.0
149.0
160.0
164.0
83.0
14.0
-2.0
-12.0
-20.0
-26.0
-28.0
-24.0
-24.0
-25.0
-21.0
-23.0
-24.0
-24.0
-24.0
-22.0
-23.0
-22.0
-21.0
-22.0
-23.0
-22.0
-18.0
-18.0
-22.0
-23.0
-24.0
-26.0
-24.0
-24.0
-24.0
-27.0
-29.0
-30.0
-25.0
-29.0
-32.0
-32.0
-37.0
-41.0
-41.0
-40.0
-33.0
-39.0
-39.0
-40.0
-37.0
-32.0
-25.0
-21.0
-14.0
-19.0
-20.0
-16.0
-5.0
0.0
0.0
0.0
2.0
5.0
9.0
10.0
12.0
16.0
15.0
10.0
9.0
9.0
10.0
11.0
11.0
9.0
7.0
7.0
8.0
5.0
4.0
7.0
6.0
6.0
9.0
9.0
4.0
4.0
5.0
7.0
4.0
4.0
4.0
5.0
4.0
4.0
2.0
6.0
3.0
3.0
4.0
1.0
0.0
0.0
0.0
0.0
0.0
0.0
0.0
0.0
0.0
1.0
1.0
0.0
0.0
0.0
2.0
3.0
0.0
-1.0
-2.0
0.0
0.0
0.0
0.0
0.0
0.0
0.0
0.0
0.0
0.0
0.0
0.0
2.0
-1.0
0.0
1.0
1.0
5.0
6.0
0.0
0.0
0.0
-2.0
-3.0
-2.0
-2.0
-1.0
0.0
0.0
0.0
0.0
0.0
3.0
10.0
17.0
22.0
27.0
30.0
27.0
29.0
51.0
80.0
111.0
141.0
156.0
157.0
141.0
59.0
6.0
-10.0
-23.0
-25.0
-29.0
-28.0
-22.0
-23.0
-24.0
-24.0
-24.0
-24.0
-23.0
-21.0
-27.0
-29.0
-29.0
-25.0
-25.0
-24.0
-23.0
-23.0
-23.0
-24.0
-24.0
-26.0
-25.0
-25.0
-27.0
-26.0
-25.0
-26.0
-29.0
-29.0
-30.0
-33.0
-37.0
-38.0
-40.0
-38.0
-34.0
-31.0
-32.0
-37.0
-36.0
-31.0
-29.0
-28.0
-23.0
-22.0
-16.0
-11.0
-10.0
-8.0
0.0
3.0
4.0
8.0
12.0
11.0
17.0
13.0
13.0
16.0
17.0
13.0
12.0
15.0
13.0
9.0
7.0
7.0
8.0
10.0
9.0
8.0
8.0
8.0
8.0
7.0
4.0
4.0
5.0
6.0
7.0
3.0
5.0
4.0
4.0
5.0
4.0
4.0
6.0
3.0
0.0
0.0
0.0
0.0
0.0
2.0
0.0
0.0
0.0
0.0
0.0
2.0
0.0
0.0
0.0
0.0
0.0
0.0
0.0
0.0
1.0
0.0
0.0
0.0
0.0
0.0
0.0
0.0
0.0
0.0
0.0
0.0
0.0
0.0
0.0
0.0
0.0
1.0
0.0
0.0
0.0
3.0
4.0
4.0
2.0
0.0
-3.0
-4.0
-3.0
0.0
0.0
0.0
-1.0
-4.0
-3.0
0.0
0.0
2.0
9.0
14.0
15.0
23.0
30.0
28.0
31.0
50.0
77.0
106.0
135.0
153.0
158.0
130.0
50.0
1.0
-18.0
-23.0
-25.0
-25.0
-29.0
-28.0
-27.0
-29.0
-32.0
-28.0
-27.0
-28.0
-29.0
-29.0
-26.0
-30.0
-29.0
-27.0
-25.0
-28.0
-29.0
-27.0
-25.0
-26.0
-30.0
-30.0
-29.0
-29.0
-30.0
-28.0
-28.0
-30.0
-30.0
-28.0
-29.0
-34.0
-39.0
-39.0
-38.0
-36.0
-37.0
-44.0
-42.0
-41.0
-40.0
-37.0
-30.0
-25.0
-20.0
-19.0
-12.0
-11.0
-9.0
0.0
0.0
0.0
5.0
7.0
6.0
6.0
10.0
11.0
11.0
11.0
11.0
10.0
8.0
8.0
6.0
4.0
5.0
7.0
6.0
4.0
3.0
3.0
3.0
4.0
6.0
4.0
2.0
1.0
1.0
3.0
3.0
2.0
1.0
1.0
2.0
2.0
0.0
0.0
0.0
0.0
0.0
4.0
0.0
-1.0
0.0
0.0
1.0
1.0
0.0
0.0
-1.0
1.0
0.0
0.0
0.0
0.0
0.0
0.0
-1.0
0.0
0.0
0.0
0.0
0.0
-1.0
-3.0
-3.0
-3.0
-2.0
0.0
0.0
-3.0
-2.0
0.0
-1.0
0.0
0.0
0.0
0.0
3.0
2.0
2.0
4.0
4.0
2.0
-2.0
-4.0
-3.0
-2.0
0.0
0.0
1.0
-3.0
-4.0
0.0
-2.0
-1.0
10.0
16.0
18.0
24.0
30.0
28.0
29.0
45.0
72.0
102.0
129.0
146.0
158.0
143.0
76.0
14.0
-9.0
-21.0
-25.0
-24.0
-23.0
-24.0
-29.0
-30.0
-29.0
-28.0
-26.0
-26.0
-27.0
-26.0
-22.0
-22.0
-25.0
-26.0
-26.0
-26.0
-26.0
-25.0
-22.0
-23.0
-22.0
-17.0
-18.0
-21.0
-21.0
-21.0
-21.0
-22.0
-27.0
-29.0
-29.0
-31.0
-34.0
-34.0
-31.0
-32.0
-40.0
-40.0
-35.0
-32.0
-35.0
-38.0
-31.0
-26.0
-22.0
-21.0
-17.0
-10.0
-2.0
-2.0
-1.0
1.0
4.0
5.0
8.0
8.0
7.0
15.0
14.0
11.0
13.0
11.0
13.0
11.0
10.0
7.0
7.0
6.0
8.0
8.0
8.0
7.0
6.0
7.0
7.0
5.0
6.0
9.0
7.0
5.0
5.0
6.0
5.0
4.0
4.0
4.0
6.0
6.0
7.0
5.0
6.0
5.0
3.0
6.0
5.0
4.0
2.0
6.0
7.0
8.0
7.0
7.0
6.0
4.0
7.0
6.0
5.0
6.0
4.0
4.0
6.0
6.0
6.0
6.0
6.0
8.0
10.0
8.0
4.0
4.0
6.0
6.0
5.0
5.0
5.0
7.0
5.0
7.0
10.0
7.0
7.0
7.0
9.0
15.0
18.0
1.0
3.0
4.0
4.0
3.0
5.0
7.0
4.0
0.0
0.0
3.0
5.0
2.0
14.0
24.0
17.0
24.0
32.0
31.0
30.0
47.0
74.0
102.0
130.0
150.0
164.0
150.0
93.0
29.0
-2.0
-10.0
-18.0
-23.0
-22.0
-22.0
-21.0
-19.0
-26.0
-25.0
-21.0
-21.0
-23.0
-20.0
-20.0
-24.0
-23.0
-23.0
-21.0
-22.0
-21.0
-23.0
-15.0
-20.0
-22.0
-21.0
-24.0
-28.0
-26.0
-22.0
-23.0
-25.0
-25.0
-27.0
-30.0
-31.0
-31.0
-34.0
-39.0
-44.0
-42.0
-37.0
-39.0
-36.0
-30.0
-26.0
-25.0
-24.0
-22.0
-18.0
-10.0
-10.0
-9.0
0.0
2.0
6.0
6.0
9.0
9.0
11.0
9.0
14.0
21.0
21.0
19.0
13.0
8.0
8.0
9.0
12.0
16.0
12.0
10.0
10.0
9.0
9.0
5.0
3.0
5.0
5.0
5.0
5.0
5.0
3.0
2.0
2.0
2.0
0.0
0.0
2.0
2.0
3.0
7.0
7.0
1.0
0.0
-1.0
0.0
0.0
0.0
0.0
0.0
2.0
2.0
2.0
-2.0
-2.0
1.0
2.0
0.0
0.0
-1.0
4.0
0.0
-3.0
-5.0
-1.0
0.0
1.0
2.0
1.0
-4.0
-3.0
0.0
0.0
-1.0
-1.0
1.0
2.0
-1.0
-3.0
-2.0
0.0
-2.0
0.0
3.0
6.0
5.0
0.0
-1.0
-1.0
-5.0
-7.0
-5.0
-4.0
-3.0
-2.0
-5.0
-5.0
0.0
-2.0
0.0
9.0
17.0
22.0
24.0
28.0
28.0
38.0
59.0
89.0
121.0
147.0
160.0
152.0
97.0
28.0
-4.0
-15.0
-24.0
-30.0
-31.0
-27.0
-25.0
-29.0
-27.0
-24.0
-22.0
-25.0
-28.0
-26.0
-30.0
-29.0
-28.0
-25.0
-24.0
-23.0
-23.0
-19.0
-23.0
-25.0
-24.0
-21.0
-27.0
-30.0
-29.0
-27.0
-24.0
-26.0
-32.0
-33.0
-30.0
-29.0
-27.0
-33.0
-41.0
-42.0
-41.0
-38.0
-38.0
-40.0
-36.0
-31.0
-29.0
-27.0
-23.0
-19.0
-11.0
-10.0
-8.0
-6.0
-2.0
0.0
1.0
7.0
8.0
10.0
17.0
16.0
11.0
11.0
10.0
10.0
8.0
8.0
7.0
11.0
9.0
9.0
8.0
7.0
4.0
1.0
0.0
0.0
4.0
7.0
6.0
7.0
5.0
2.0
2.0
4.0
4.0
1.0
0.0
0.0
1.0
3.0
5.0
6.0
2.0
0.0
-1.0
1.0
8.0
5.0
0.0
0.0
4.0
3.0
1.0
1.0
1.0
3.0
3.0
0.0
0.0
3.0
4.0
6.0
5.0
1.0
1.0
4.0
3.0
-1.0
0.0
1.0
1.0
0.0
1.0
3.0
5.0
3.0
0.0
0.0
0.0
4.0
4.0
3.0
6.0
9.0
6.0
4.0
3.0
2.0
0.0
0.0
3.0
0.0
0.0
-4.0
-2.0
1.0
1.0
1.0
6.0
8.0
13.0
21.0
26.0
27.0
25.0
32.0
49.0
73.0
107.0
133.0
149.0
166.0
127.0
50.0
2.0
-13.0
-21.0
-26.0
-29.0
-29.0
-29.0
-29.0
-32.0
-34.0
-31.0
-29.0
-29.0
-29.0
-27.0
-24.0
-24.0
-29.0
-33.0
-34.0
-27.0
-28.0
-22.0
-21.0
-21.0
-24.0
-26.0
-38.0
-33.0
-33.0
-31.0
-29.0
-30.0
-27.0
-26.0
-17.0
-26.0
-38.0
-39.0
-41.0
-44.0
-41.0
-39.0
-36.0
-36.0
-32.0
-28.0
-24.0
-21.0
-23.0
-24.0
-21.0
-13.0
-7.0
-3.0
0.0
2.0
5.0
5.0
7.0
4.0
4.0
8.0
13.0
18.0
8.0
4.0
4.0
6.0
4.0
2.0
8.0
7.0
6.0
2.0
2.0
2.0
3.0
3.0
3.0
14.0
6.0
-1.0
0.0
1.0
5.0
3.0
0.0
0.0
3.0
9.0
9.0
3.0
-1.0
-2.0
1.0
1.0
3.0
4.0
4.0
2.0
0.0
0.0
3.0
0.0
1.0
-1.0
-1.0
0.0
1.0
7.0
7.0
3.0
3.0
1.0
-1.0
0.0
-1.0
1.0
0.0
0.0
1.0
5.0
5.0
4.0
4.0
0.0
-4.0
-3.0
0.0
3.0
1.0
2.0
4.0
1.0
3.0
9.0
10.0
5.0
0.0
-2.0
-1.0
3.0
0.0
1.0
4.0
3.0
0.0
0.0
-2.0
-1.0
4.0
22.0
22.0
23.0
27.0
31.0
25.0
33.0
61.0
85.0
110.0
135.0
151.0
162.0
117.0
43.0
3.0
-10.0
-16.0
-20.0
-24.0
-28.0
-30.0
-28.0
-24.0
-24.0
-23.0
-20.0
-16.0
-21.0
-29.0
-30.0
-25.0
-19.0
-24.0
-24.0
-26.0
-25.0
-24.0
-23.0
-19.0
-21.0
-21.0
-17.0
-18.0
-30.0
-29.0
-24.0
-18.0
-21.0
-21.0
-30.0
-27.0
-22.0
-28.0
-29.0
-29.0
-34.0
-39.0
-34.0
-31.0
-29.0
-30.0
-27.0
-21.0
-16.0
-10.0
-6.0
-2.0
0.0
0.0
1.0
2.0
5.0
10.0
14.0
17.0
19.0
22.0
17.0
8.0
10.0
18.0
14.0
13.0
9.0
5.0
5.0
1.0
6.0
14.0
10.0
4.0
1.0
1.0
6.0
10.0
8.0
5.0
3.0
0.0
1.0
4.0
7.0
8.0
7.0
4.0
3.0
6.0
7.0
3.0
0.0
0.0
4.0
7.0
7.0
4.0
5.0
8.0
7.0
2.0
2.0
6.0
8.0
-1.0
-3.0
0.0
5.0
7.0
7.0
7.0
5.0
0.0
1.0
0.0
3.0
6.0
9.0
6.0
2.0
5.0
0.0
-1.0
0.0
0.0
0.0
2.0
10.0
12.0
7.0
10.0
9.0
2.0
0.0
0.0
-1.0
-3.0
2.0
5.0
1.0
-5.0
-3.0
-2.0
0.0
2.0
1.0
2.0
11.0
16.0
15.0
32.0
33.0
30.0
25.0
44.0
71.0
107.0
134.0
155.0
167.0
144.0
70.0
15.0
-4.0
-10.0
-20.0
-23.0
-23.0
-24.0
-23.0
-20.0
-18.0
-19.0
-23.0
-28.0
-30.0
-24.0
-22.0
-24.0
-26.0
-21.0
-16.0
-16.0
-15.0
-21.0
-24.0
-25.0
-28.0
-22.0
-17.0
-27.0
-31.0
-28.0
-24.0
-23.0
-12.0
-34.0
-40.0
-41.0
-33.0
-33.0
-29.0
-29.0
-41.0
-42.0
-35.0
-37.0
-34.0
-25.0
-23.0
-22.0
-20.0
-12.0
-4.0
-2.0
-4.0
-1.0
2.0
3.0
5.0
5.0
6.0
11.0
13.0
15.0
21.0
17.0
19.0
19.0
13.0
9.0
3.0
3.0
11.0
17.0
5.0
5.0
5.0
6.0
7.0
8.0
0.0
3.0
8.0
4.0
1.0
0.0
0.0
-1.0
-2.0
0.0
2.0
7.0
7.0
2.0
0.0
-1.0
-3.0
0.0
0.0
0.0
0.0
0.0
4.0
5.0
3.0
7.0
3.0
-4.0
-2.0
0.0
-1.0
-2.0
-2.0
0.0
0.0
0.0
3.0
0.0
1.0
4.0
2.0
0.0
0.0
-2.0
-3.0
0.0
0.0
2.0
3.0
0.0
0.0
2.0
4.0
6.0
5.0
5.0
3.0
0.0
0.0
0.0
0.0
3.0
5.0
0.0
-2.0
-1.0
-1.0
-4.0
-2.0
0.0
4.0
8.0
12.0
15.0
26.0
32.0
29.0
31.0
51.0
88.0
106.0
132.0
154.0
174.0
159.0
67.0
8.0
-6.0
-6.0
-5.0
-13.0
-23.0
-25.0
-23.0
-14.0
-8.0
-15.0
-21.0
-26.0
-23.0
-11.0
-6.0
-17.0
-27.0
-26.0
-20.0
-21.0
-26.0
-23.0
-19.0
-11.0
-8.0
-9.0
-11.0
-9.0
-14.0
-17.0
-26.0
-26.0
-26.0
-29.0
-29.0
-28.0
-24.0
-25.0
-31.0
-32.0
-29.0
-31.0
-31.0
-24.0
-32.0
-36.0
-28.0
-25.0
-25.0
-15.0
-7.0
-3.0
-1.0
5.0
7.0
8.0
10.0
13.0
13.0
7.0
9.0
15.0
9.0
4.0
12.0
18.0
21.0
15.0
2.0
0.0
3.0
9.0
10.0
4.0
4.0
8.0
6.0
0.0
2.0
7.0
4.0
0.0
9.0
7.0
7.0
10.0
10.0
0.0
-2.0
-5.0
-1.0
2.0
8.0
5.0
4.0
6.0
5.0
7.0
4.0
-2.0
-2.0
3.0
7.0
5.0
1.0
0.0
0.0
4.0
7.0
1.0
1.0
4.0
1.0
-4.0
-3.0
0.0
6.0
9.0
3.0
5.0
3.0
-4.0
-7.0
0.0
0.0
1.0
5.0
17.0
4.0
-8.0
0.0
5.0
5.0
5.0
4.0
5.0
2.0
1.0
-1.0
0.0
2.0
1.0
-2.0
-6.0
-5.0
-1.0
0.0
-1.0
2.0
8.0
11.0
16.0
20.0
24.0
24.0
19.0
35.0
67.0
89.0
116.0
142.0
170.0
169.0
122.0
47.0
4.0
-4.0
-13.0
-13.0
-20.0
-31.0
-24.0
-31.0
-32.0
-24.0
-22.0
-21.0
-20.0
-14.0
-12.0
-15.0
-20.0
-26.0
-30.0
-27.0
-24.0
-25.0
-28.0
-23.0
-15.0
-13.0
-8.0
-10.0
-25.0
-31.0
-28.0
-20.0
-11.0
-24.0
-39.0
-42.0
-40.0
-34.0
-28.0
-25.0
-25.0
-25.0
-43.0
-47.0
-44.0
-40.0
-31.0
-22.0
-20.0
-16.0
-9.0
-3.0
-5.0
-9.0
-6.0
2.0
16.0
15.0
8.0
2.0
3.0
8.0
12.0
10.0
7.0
8.0
14.0
14.0
5.0
2.0
7.0
11.0
12.0
15.0
5.0
0.0
0.0
0.0
3.0
0.0
2.0
3.0
7.0
8.0
9.0
14.0
0.0
-2.0
0.0
4.0
5.0
7.0
1.0
0.0
0.0
-1.0
4.0
3.0
0.0
0.0
2.0
2.0
5.0
5.0
9.0
7.0
-3.0
-5.0
-1.0
0.0
1.0
0.0
0.0
1.0
4.0
3.0
-2.0
1.0
9.0
7.0
5.0
-1.0
3.0
-1.0
-9.0
-3.0
3.0
2.0
0.0
6.0
0.0
-9.0
-1.0
1.0
5.0
9.0
8.0
0.0
-4.0
-2.0
0.0
2.0
5.0
6.0
2.0
3.0
4.0
-1.0
-8.0
-7.0
1.0
9.0
16.0
26.0
28.0
22.0
26.0
34.0
54.0
95.0
126.0
145.0
159.0
167.0
122.0
35.0
-4.0
-4.0
-8.0
-13.0
-22.0
-25.0
-23.0
-21.0
-25.0
-32.0
-29.0
-22.0
-25.0
-18.0
-11.0
-13.0
-23.0
-25.0
-18.0
-18.0
-20.0
-25.0
-29.0
-34.0
-28.0
-20.0
-21.0
-25.0
-25.0
-13.0
-9.0
-27.0
-41.0
-38.0
-32.0
-31.0
-31.0
-34.0
-38.0
-39.0
-32.0
-37.0
-42.0
-41.0
-42.0
-30.0
-45.0
-51.0
-33.0
-21.0
-23.0
-12.0
-11.0
-3.0
-7.0
-12.0
-6.0
-1.0
0.0
1.0
3.0
1.0
5.0
8.0
8.0
9.0
8.0
10.0
16.0
8.0
-7.0
-10.0
-6.0
-4.0
0.0
4.0
3.0
0.0
0.0
1.0
0.0
-5.0
-10.0
-9.0
-1.0
0.0
4.0
18.0
-3.0
-17.0
-8.0
-15.0
-5.0
0.0
-1.0
1.0
0.0
-4.0
0.0
-4.0
-10.0
-9.0
-15.0
-10.0
-3.0
0.0
-5.0
-4.0
-3.0
-4.0
-4.0
0.0
1.0
-1.0
-4.0
-7.0
-13.0
-12.0
0.0
5.0
1.0
-5.0
1.0
1.0
-10.0
-16.0
-6.0
-1.0
-7.0
-5.0
-3.0
3.0
9.0
15.0
0.0
0.0
3.0
-2.0
-7.0
2.0
3.0
-5.0
-9.0
-3.0
0.0
-5.0
-10.0
-3.0
1.0
7.0
17.0
21.0
13.0
9.0
18.0
25.0
27.0
43.0
72.0
104.0
137.0
161.0
164.0
141.0
66.0
3.0
-12.0
-20.0
-24.0
-24.0
-25.0
-34.0
-27.0
-31.0
-24.0
-25.0
-42.0
-39.0
-25.0
-25.0
-28.0
-25.0
-28.0
-31.0
-27.0
-27.0
-28.0
-25.0
-25.0
-24.0
-34.0
-40.0
-33.0
-27.0
-23.0
-13.0
-16.0
-21.0
-25.0
-38.0
-42.0
-38.0
-35.0
-33.0
-31.0
-29.0
-31.0
-47.0
-56.0
-48.0
-31.0
-25.0
-17.0
-26.0
-30.0
-15.0
-2.0
-10.0
-14.0
-20.0
-6.0
0.0
2.0
0.0
3.0
16.0
22.0
18.0
8.0
0.0
-2.0
2.0
5.0
3.0
3.0
8.0
16.0
17.0
17.0
11.0
-8.0
-19.0
-9.0
2.0
6.0
2.0
3.0
6.0
5.0
4.0
0.0
-2.0
-1.0
0.0
3.0
2.0
-4.0
-5.0
-1.0
-1.0
-4.0
-3.0
2.0
-3.0
3.0
4.0
-3.0
-4.0
-1.0
3.0
2.0
-3.0
-10.0
-6.0
6.0
0.0
-3.0
-8.0
-9.0
-9.0
-4.0
0.0
-2.0
-2.0
3.0
5.0
1.0
1.0
-4.0
-11.0
-4.0
0.0
-1.0
-3.0
-8.0
-5.0
2.0
9.0
20.0
8.0
-4.0
-7.0
2.0
-6.0
-13.0
-13.0
-4.0
-7.0
-15.0
-2.0
1.0
-2.0
-19.0
-17.0
-3.0
6.0
24.0
28.0
24.0
17.0
35.0
66.0
85.0
113.0
145.0
156.0
146.0
101.0
34.0
-5.0
-22.0
-29.0
-34.0
-28.0
-20.0
-16.0
-25.0
-33.0
-39.0
-42.0
-37.0
-28.0
-11.0
-16.0
-22.0
-15.0
-8.0
-26.0
-31.0
-37.0
-26.0
-24.0
-15.0
-15.0
-14.0
-22.0
-26.0
-23.0
-22.0
-23.0
-15.0
-25.0
-40.0
-47.0
-42.0
-31.0
-23.0
-22.0
-24.0
-31.0
-43.0
-47.0
-49.0
-48.0
-38.0
-31.0
-31.0
-24.0
-20.0
-7.0
0.0
-5.0
-5.0
-12.0
-18.0
-10.0
0.0
13.0
13.0
12.0
8.0
19.0
22.0
10.0
1.0
6.0
8.0
4.0
4.0
14.0
11.0
0.0
-3.0
3.0
0.0
1.0
2.0
0.0
3.0
5.0
6.0
3.0
-4.0
-7.0
-1.0
6.0
5.0
1.0
-1.0
1.0
5.0
-2.0
-8.0
-2.0
-6.0
-10.0
-3.0
5.0
4.0
6.0
3.0
4.0
4.0
0.0
-13.0
-19.0
-4.0
4.0
2.0
-1.0
0.0
0.0
-1.0
-4.0
0.0
-1.0
-10.0
-10.0
1.0
6.0
-5.0
-12.0
-8.0
-6.0
2.0
16.0
16.0
1.0
-3.0
1.0
6.0
4.0
-5.0
-5.0
-6.0
0.0
-4.0
-12.0
-12.0
-9.0
-6.0
4.0
12.0
9.0
7.0
11.0
28.0
26.0
26.0
49.0
61.0
84.0
125.0
145.0
152.0
171.0
114.0
40.0
3.0
-9.0
-16.0
-22.0
-25.0
-25.0
-26.0
-21.0
-20.0
-28.0
-30.0
-26.0
-24.0
-26.0
-27.0
-24.0
-19.0
-10.0
-5.0
-16.0
-33.0
-31.0
-17.0
-10.0
-27.0
-31.0
-23.0
-20.0
-22.0
-16.0
-12.0
-26.0
-32.0
-40.0
-32.0
-26.0
-23.0
-20.0
-27.0
-29.0
-30.0
-33.0
-39.0
-42.0
-35.0
-32.0
-30.0
-23.0
-23.0
-22.0
-15.0
-10.0
-5.0
0.0
7.0
10.0
2.0
0.0
3.0
6.0
7.0
11.0
13.0
12.0
12.0
14.0
13.0
11.0
6.0
6.0
20.0
6.0
2.0
-5.0
-4.0
6.0
19.0
17.0
10.0
5.0
0.0
2.0
8.0
18.0
7.0
-4.0
-4.0
2.0
9.0
6.0
6.0
9.0
7.0
6.0
4.0
2.0
2.0
2.0
0.0
3.0
6.0
7.0
12.0
9.0
4.0
5.0
3.0
9.0
10.0
0.0
-1.0
-3.0
-2.0
4.0
10.0
10.0
10.0
5.0
6.0
13.0
14.0
3.0
1.0
1.0
5.0
4.0
3.0
3.0
6.0
8.0
9.0
9.0
4.0
5.0
10.0
18.0
17.0
7.0
1.0
2.0
5.0
5.0
7.0
7.0
8.0
6.0
0.0
-1.0
0.0
3.0
10.0
25.0
29.0
24.0
28.0
28.0
27.0
33.0
59.0
94.0
131.0
155.0
156.0
163.0
112.0
42.0
5.0
-4.0
-13.0
-19.0
-23.0
-25.0
-23.0
-22.0
-23.0
-25.0
-23.0
-20.0
-13.0
-8.0
-13.0
-21.0
-19.0
-19.0
-25.0
-19.0
-15.0
-15.0
-18.0
-13.0
-8.0
-20.0
-22.0
-10.0
-11.0
-25.0
-26.0
-23.0
-14.0
-8.0
-18.0
-28.0
-30.0
-29.0
-34.0
-31.0
-29.0
-32.0
-33.0
-31.0
-27.0
-16.0
-19.0
-26.0
-26.0
-19.0
-12.0
-7.0
-4.0
0.0
3.0
2.0
0.0
1.0
6.0
18.0
24.0
22.0
18.0
16.0
16.0
19.0
12.0
7.0
10.0
12.0
9.0
9.0
8.0
8.0
8.0
10.0
13.0
18.0
11.0
10.0
9.0
7.0
4.0
2.0
5.0
10.0
14.0
24.0
16.0
7.0
3.0
3.0
7.0
16.0
15.0
8.0
7.0
6.0
5.0
4.0
3.0
3.0
4.0
8.0
13.0
12.0
8.0
8.0
9.0
8.0
7.0
12.0
14.0
1.0
2.0
3.0
13.0
18.0
6.0
3.0
3.0
9.0
10.0
3.0
3.0
10.0
19.0
15.0
6.0
5.0
0.0
9.0
20.0
23.0
17.0
10.0
4.0
1.0
2.0
4.0
5.0
6.0
9.0
8.0
2.0
0.0
1.0
0.0
0.0
4.0
17.0
28.0
31.0
30.0
27.0
27.0
40.0
60.0
87.0
115.0
136.0
158.0
183.0
142.0
51.0
4.0
-16.0
-20.0
-21.0
-17.0
-19.0
-18.0
-13.0
-13.0
-16.0
-15.0
-20.0
-20.0
-17.0
-18.0
-20.0
-18.0
-16.0
-17.0
-14.0
-12.0
-14.0
-18.0
-22.0
-21.0
-14.0
-8.0
-7.0
-8.0
-16.0
-24.0
-27.0
-23.0
-23.0
-24.0
-22.0
-13.0
-17.0
-31.0
-30.0
-24.0
-22.0
-28.0
-29.0
-29.0
-31.0
-32.0
-25.0
-20.0
-15.0
-8.0
-2.0
-1.0
0.0
1.0
7.0
15.0
12.0
6.0
6.0
8.0
13.0
14.0
15.0
18.0
15.0
14.0
19.0
18.0
10.0
7.0
9.0
10.0
13.0
11.0
10.0
10.0
16.0
8.0
6.0
8.0
8.0
8.0
7.0
7.0
7.0
8.0
9.0
10.0
9.0
9.0
5.0
4.0
5.0
4.0
4.0
7.0
6.0
7.0
10.0
9.0
6.0
7.0
8.0
9.0
10.0
7.0
6.0
8.0
9.0
7.0
7.0
6.0
3.0
4.0
5.0
7.0
10.0
14.0
9.0
8.0
8.0
9.0
8.0
0.0
0.0
4.0
9.0
8.0
9.0
9.0
11.0
16.0
6.0
0.0
0.0
1.0
2.0
4.0
4.0
3.0
3.0
1.0
0.0
-1.0
3.0
9.0
17.0
23.0
22.0
25.0
30.0
29.0
31.0
51.0
76.0
102.0
138.0
162.0
159.0
153.0
84.0
26.0
-1.0
-16.0
-17.0
-16.0
-20.0
-20.0
-21.0
-19.0
-19.0
-28.0
-21.0
-18.0
-18.0
-21.0
-26.0
-25.0
-21.0
-20.0
-17.0
-20.0
-23.0
-27.0
-24.0
-25.0
-31.0
-30.0
-26.0
-23.0
-22.0
-24.0
-25.0
-22.0
-26.0
-28.0
-28.0
-32.0
-32.0
-35.0
-38.0
-36.0
-40.0
-39.0
-35.0
-40.0
-34.0
-31.0
-24.0
-25.0
-20.0
-14.0
-8.0
-13.0
-14.0
-15.0
-4.0
0.0
4.0
8.0
7.0
4.0
4.0
8.0
9.0
10.0
9.0
6.0
3.0
3.0
6.0
8.0
7.0
3.0
0.0
1.0
2.0
2.0
3.0
3.0
4.0
1.0
1.0
4.0
7.0
10.0
6.0
7.0
3.0
0.0
-1.0
0.0
3.0
4.0
5.0
7.0
1.0
5.0
3.0
0.0
0.0
2.0
6.0
6.0
5.0
5.0
3.0
5.0
8.0
9.0
9.0
5.0
1.0
3.0
5.0
3.0
1.0
1.0
3.0
4.0
4.0
5.0
5.0
6.0
6.0
6.0
5.0
4.0
4.0
3.0
3.0
4.0
5.0
7.0
8.0
16.0
20.0
17.0
11.0
8.0
8.0
8.0
2.0
1.0
5.0
6.0
4.0
4.0
4.0
2.0
2.0
4.0
12.0
19.0
21.0
27.0
33.0
35.0
34.0
42.0
63.0
89.0
118.0
146.0
168.0
171.0
137.0
57.0
11.0
-4.0
-13.0
-19.0
-18.0
-17.0
-16.0
-16.0
-17.0
-11.0
-8.0
-11.0
-14.0
-8.0
-10.0
-11.0
-8.0
-10.0
-8.0
-11.0
-12.0
-11.0
-7.0
-8.0
-10.0
-8.0
-10.0
-12.0
-9.0
-8.0
-9.0
-11.0
-12.0
-15.0
-19.0
-21.0
-21.0
-23.0
-24.0
-25.0
-25.0
-26.0
-25.0
-24.0
-24.0
-24.0
-23.0
-20.0
-18.0
-8.0
-7.0
-4.0
0.0
3.0
4.0
4.0
6.0
10.0
11.0
15.0
18.0
20.0
21.0
21.0
19.0
14.0
13.0
18.0
18.0
14.0
12.0
11.0
11.0
11.0
11.0
11.0
11.0
11.0
12.0
13.0
9.0
6.0
7.0
8.0
7.0
6.0
6.0
8.0
8.0
11.0
11.0
8.0
6.0
7.0
7.0
7.0
7.0
7.0
7.0
7.0
4.0
4.0
4.0
7.0
8.0
5.0
5.0
3.0
3.0
3.0
1.0
2.0
4.0
4.0
3.0
3.0
4.0
5.0
4.0
4.0
2.0
2.0
4.0
3.0
1.0
2.0
4.0
4.0
5.0
5.0
6.0
5.0
4.0
4.0
8.0
8.0
8.0
8.0
8.0
4.0
4.0
2.0
2.0
3.0
4.0
4.0
3.0
3.0
4.0
3.0
3.0
6.0
17.0
23.0
23.0
31.0
40.0
36.0
36.0
54.0
81.0
112.0
143.0
159.0
165.0
147.0
78.0
18.0
-2.0
-12.0
-19.0
-16.0
-17.0
-16.0
-17.0
-15.0
-14.0
-14.0
-21.0
-21.0
-21.0
-14.0
-15.0
-19.0
-12.0
-13.0
-19.0
-21.0
-20.0
-16.0
-14.0
-12.0
-17.0
-15.0
-17.0
-20.0
-16.0
-17.0
-21.0
-23.0
-21.0
-21.0
-25.0
-29.0
-28.0
-28.0
-31.0
-32.0
-31.0
-32.0
-31.0
-30.0
-32.0
-30.0
-27.0
-22.0
-19.0
-15.0
-8.0
-9.0
-7.0
-3.0
0.0
1.0
3.0
6.0
9.0
11.0
11.0
11.0
11.0
11.0
11.0
12.0
10.0
8.0
8.0
9.0
10.0
7.0
6.0
5.0
4.0
4.0
4.0
5.0
6.0
6.0
5.0
3.0
1.0
0.0
0.0
0.0
0.0
0.0
1.0
3.0
2.0
2.0
3.0
4.0
3.0
0.0
-1.0
0.0
0.0
0.0
0.0
0.0
1.0
1.0
-1.0
0.0
1.0
0.0
0.0
0.0
0.0
0.0
0.0
0.0
-1.0
0.0
0.0
0.0
0.0
0.0
0.0
0.0
0.0
0.0
-1.0
-3.0
-3.0
-2.0
-1.0
-1.0
-1.0
2.0
2.0
2.0
4.0
5.0
6.0
0.0
-5.0
-5.0
-4.0
-4.0
-3.0
-2.0
-2.0
-3.0
-3.0
-3.0
-3.0
-5.0
1.0
9.0
13.0
22.0
29.0
27.0
23.0
34.0
60.0
88.0
119.0
144.0
156.0
151.0
101.0
28.0
-6.0
-15.0
-21.0
-24.0
-26.0
-26.0
-26.0
-25.0
-25.0
-28.0
-25.0
-26.0
-25.0
-24.0
-25.0
-27.0
-26.0
-24.0
-23.0
-23.0
-24.0
-24.0
-24.0
-25.0
-24.0
-24.0
-24.0
-24.0
-23.0
-23.0
-25.0
-27.0
-29.0
-29.0
-30.0
-32.0
-33.0
-34.0
-35.0
-37.0
-40.0
-44.0
-42.0
-38.0
-33.0
-31.0
-28.0
-26.0
-25.0
-24.0
-19.0
-14.0
-7.0
-5.0
-5.0
0.0
2.0
6.0
7.0
9.0
8.0
8.0
8.0
7.0
7.0
8.0
8.0
8.0
5.0
5.0
6.0
7.0
6.0
6.0
3.0
4.0
6.0
4.0
4.0
4.0
4.0
4.0
3.0
3.0
3.0
3.0
3.0
3.0
2.0
0.0
3.0
3.0
3.0
1.0
4.0
0.0
0.0
0.0
0.0
1.0
1.0
2.0
0.0
0.0
3.0
2.0
0.0
0.0
1.0
2.0
0.0
0.0
0.0
0.0
0.0
3.0
4.0
1.0
-1.0
0.0
0.0
0.0
0.0
2.0
3.0
1.0
0.0
0.0
0.0
1.0
2.0
2.0
0.0
2.0
3.0
2.0
4.0
8.0
8.0
4.0
-1.0
-1.0
0.0
0.0
0.0
0.0
0.0
0.0
0.0
-1.0
0.0
0.0
2.0
16.0
19.0
20.0
30.0
36.0
29.0
32.0
53.0
82.0
112.0
140.0
155.0
162.0
130.0
57.0
8.0
-8.0
-16.0
-22.0
-24.0
-23.0
-21.0
-21.0
-24.0
-26.0
-24.0
-23.0
-21.0
-21.0
-21.0
-21.0
-20.0
-20.0
-23.0
-23.0
-21.0
-23.0
-21.0
-19.0
-23.0
-23.0
-23.0
-20.0
-22.0
-23.0
-24.0
-24.0
-23.0
-24.0
-27.0
-30.0
-32.0
-33.0
-33.0
-37.0
-38.0
-37.0
-35.0
-35.0
-39.0
-36.0
-28.0
-27.0
-25.0
-18.0
-12.0
-8.0
-10.0
-9.0
-4.0
0.0
5.0
7.0
7.0
10.0
8.0
13.0
12.0
12.0
12.0
12.0
13.0
9.0
9.0
9.0
8.0
8.0
7.0
5.0
5.0
7.0
8.0
9.0
5.0
5.0
6.0
5.0
3.0
3.0
3.0
5.0
5.0
4.0
3.0
3.0
4.0
4.0
6.0
6.0
2.0
2.0
2.0
3.0
3.0
3.0
3.0
4.0
3.0
1.0
4.0
4.0
2.0
2.0
4.0
3.0
4.0
6.0
7.0
1.0
0.0
0.0
1.0
2.0
2.0
1.0
2.0
4.0
2.0
1.0
3.0
2.0
2.0
3.0
3.0
5.0
3.0
2.0
2.0
3.0
8.0
9.0
7.0
3.0
0.0
0.0
0.0
0.0
0.0
0.0
0.0
0.0
-2.0
-2.0
0.0
-1.0
1.0
15.0
23.0
20.0
26.0
30.0
27.0
36.0
58.0
87.0
119.0
144.0
157.0
165.0
118.0
43.0
2.0
-13.0
-20.0
-21.0
-23.0
-23.0
-25.0
-24.0
-25.0
-25.0
-24.0
-25.0
-24.0
-22.0
-22.0
-23.0
-22.0
-21.0
-20.0
-24.0
-23.0
-22.0
-23.0
-22.0
-22.0
-26.0
-23.0
-22.0
-22.0
-23.0
-25.0
-26.0
-27.0
-26.0
-28.0
-31.0
-34.0
-33.0
-36.0
-40.0
-41.0
-41.0
-41.0
-41.0
-41.0
-36.0
-30.0
-29.0
-27.0
-24.0
-20.0
-14.0
-8.0
-4.0
-2.0
1.0
3.0
3.0
2.0
3.0
8.0
11.0
10.0
8.0
7.0
8.0
8.0
8.0
9.0
5.0
4.0
4.0
7.0
4.0
4.0
4.0
6.0
4.0
4.0
4.0
3.0
2.0
2.0
3.0
4.0
4.0
4.0
2.0
0.0
2.0
4.0
2.0
1.0
0.0
1.0
3.0
2.0
3.0
5.0
4.0
3.0
3.0
2.0
1.0
1.0
3.0
4.0
2.0
0.0
3.0
3.0
4.0
4.0
3.0
3.0
4.0
2.0
0.0
1.0
5.0
6.0
5.0
3.0
0.0
1.0
3.0
5.0
4.0
2.0
1.0
3.0
4.0
4.0
4.0
4.0
7.0
11.0
10.0
8.0
4.0
2.0
1.0
2.0
1.0
0.0
0.0
1.0
0.0
0.0
0.0
3.0
4.0
11.0
20.0
23.0
27.0
34.0
33.0
32.0
51.0
80.0
112.0
140.0
157.0
169.0
148.0
82.0
24.0
0.0
-11.0
-20.0
-24.0
-24.0
-22.0
-20.0
-19.0
-20.0
-22.0
-21.0
-22.0
-19.0
-16.0
-15.0
-18.0
-21.0
-21.0
-19.0
-15.0
-19.0
-19.0
-22.0
-24.0
-23.0
-20.0
-20.0
-22.0
-21.0
-21.0
-21.0
-24.0
-22.0
-25.0
-26.0
-28.0
-32.0
-33.0
-33.0
-34.0
-33.0
-33.0
-33.0
-32.0
-32.0
-32.0
-29.0
-24.0
-21.0
-18.0
-14.0
-9.0
-6.0
-5.0
0.0
1.0
4.0
7.0
8.0
11.0
13.0
16.0
12.0
10.0
13.0
11.0
8.0
8.0
8.0
8.0
6.0
8.0
8.0
5.0
4.0
4.0
7.0
5.0
3.0
3.0
4.0
4.0
4.0
3.0
5.0
3.0
1.0
1.0
2.0
3.0
3.0
3.0
2.0
2.0
4.0
3.0
2.0
1.0
0.0
0.0
1.0
3.0
3.0
6.0
3.0
1.0
3.0
2.0
1.0
1.0
1.0
4.0
4.0
1.0
0.0
0.0
1.0
2.0
2.0
2.0
2.0
1.0
3.0
2.0
0.0
2.0
3.0
2.0
0.0
1.0
3.0
6.0
8.0
10.0
10.0
7.0
2.0
0.0
0.0
0.0
0.0
0.0
0.0
-2.0
-1.0
0.0
0.0
0.0
6.0
20.0
25.0
26.0
41.0
43.0
30.0
30.0
55.0
87.0
118.0
144.0
156.0
171.0
137.0
59.0
9.0
-7.0
-10.0
-16.0
-22.0
-22.0
-20.0
-21.0
-20.0
-21.0
-23.0
-22.0
-21.0
-21.0
-20.0
-20.0
-17.0
-16.0
-18.0
-18.0
-18.0
-16.0
-23.0
-21.0
-20.0
-22.0
-23.0
-21.0
-21.0
-21.0
-22.0
-20.0
-22.0
-24.0
-24.0
-25.0
-28.0
-29.0
-34.0
-34.0
-33.0
-36.0
-35.0
-33.0
-31.0
-31.0
-29.0
-26.0
-25.0
-21.0
-16.0
-10.0
-6.0
-2.0
0.0
2.0
5.0
7.0
9.0
11.0
11.0
12.0
14.0
17.0
15.0
11.0
12.0
11.0
7.0
6.0
8.0
9.0
6.0
5.0
6.0
7.0
7.0
6.0
6.0
6.0
6.0
6.0
6.0
6.0
4.0
5.0
7.0
5.0
4.0
3.0
4.0
5.0
4.0
5.0
5.0
3.0
1.0
1.0
2.0
3.0
2.0
1.0
2.0
4.0
5.0
6.0
3.0
3.0
4.0
4.0
3.0
2.0
0.0
4.0
5.0
4.0
4.0
10.0
3.0
0.0
0.0
0.0
0.0
2.0
1.0
3.0
2.0
4.0
4.0
3.0
2.0
2.0
3.0
4.0
7.0
9.0
9.0
7.0
4.0
3.0
3.0
2.0
0.0
0.0
0.0
0.0
0.0
0.0
0.0
0.0
2.0
8.0
13.0
19.0
26.0
40.0
38.0
30.0
44.0
72.0
99.0
133.0
160.0
165.0
174.0
94.0
23.0
-2.0
-10.0
-19.0
-20.0
-20.0
-22.0
-24.0
-23.0
-21.0
-23.0
-25.0
-24.0
-24.0
-22.0
-21.0
-21.0
-19.0
-19.0
-21.0
-22.0
-24.0
-22.0
-21.0
-22.0
-22.0
-22.0
-21.0
-19.0
-22.0
-21.0
-24.0
-24.0
-25.0
-26.0
-26.0
-26.0
-31.0
-31.0
-34.0
-40.0
-39.0
-37.0
-37.0
-33.0
-33.0
-29.0
-29.0
-29.0
-26.0
-23.0
-16.0
-10.0
-6.0
-1.0
2.0
4.0
4.0
5.0
8.0
11.0
11.0
11.0
11.0
10.0
12.0
12.0
11.0
9.0
8.0
7.0
5.0
6.0
10.0
8.0
7.0
3.0
3.0
4.0
4.0
5.0
5.0
5.0
4.0
4.0
5.0
3.0
3.0
2.0
3.0
2.0
1.0
1.0
3.0
2.0
1.0
0.0
0.0
1.0
1.0
0.0
0.0
0.0
2.0
2.0
0.0
0.0
1.0
0.0
0.0
1.0
2.0
0.0
0.0
0.0
0.0
-1.0
0.0
0.0
0.0
-1.0
0.0
0.0
-3.0
-1.0
-2.0
-2.0
0.0
-1.0
-1.0
1.0
-2.0
-1.0
0.0
2.0
4.0
4.0
6.0
5.0
0.0
-3.0
-3.0
-3.0
-5.0
-3.0
-1.0
-2.0
-4.0
-3.0
-4.0
-4.0
-3.0
3.0
9.0
10.0
16.0
27.0
24.0
23.0
41.0
73.0
98.0
129.0
151.0
160.0
152.0
64.0
6.0
-12.0
-20.0
-25.0
-26.0
-28.0
-29.0
-29.0
-29.0
-27.0
-28.0
-29.0
-29.0
-27.0
-27.0
-25.0
-24.0
-27.0
-27.0
-26.0
-26.0
-27.0
-28.0
-26.0
-24.0
-24.0
-26.0
-29.0
-29.0
-29.0
-29.0
-29.0
-29.0
-31.0
-35.0
-35.0
-39.0
-42.0
-42.0
-44.0
-46.0
-45.0
-45.0
-45.0
-45.0
-42.0
-39.0
-32.0
-34.0
-32.0
-24.0
-20.0
-18.0
-13.0
-9.0
-5.0
-4.0
-1.0
1.0
2.0
3.0
4.0
5.0
7.0
8.0
8.0
5.0
2.0
2.0
4.0
4.0
4.0
6.0
5.0
0.0
1.0
2.0
1.0
2.0
1.0
1.0
3.0
1.0
0.0
1.0
2.0
3.0
0.0
0.0
2.0
3.0
3.0
4.0
5.0
1.0
0.0
2.0
4.0
4.0
2.0
5.0
6.0
3.0
0.0
2.0
2.0
2.0
4.0
5.0
4.0
4.0
3.0
3.0
3.0
3.0
4.0
4.0
3.0
2.0
1.0
1.0
4.0
4.0
6.0
4.0
3.0
3.0
4.0
5.0
5.0
4.0
4.0
4.0
2.0
6.0
7.0
9.0
11.0
10.0
4.0
0.0
-1.0
0.0
2.0
1.0
1.0
0.0
-2.0
-1.0
0.0
0.0
7.0
18.0
23.0
24.0
32.0
35.0
30.0
38.0
65.0
93.0
123.0
149.0
161.0
170.0
128.0
44.0
-1.0
-11.0
-16.0
-20.0
-21.0
-22.0
-23.0
-24.0
-25.0
-24.0
-24.0
-19.0
-24.0
-28.0
-25.0
-24.0
-23.0
-24.0
-24.0
-22.0
-22.0
-24.0
-25.0
-24.0
-24.0
-24.0
-25.0
-25.0
-26.0
-28.0
-27.0
-27.0
-27.0
-27.0
-27.0
-29.0
-29.0
-31.0
-40.0
-43.0
-43.0
-43.0
-41.0
-40.0
-34.0
-33.0
-33.0
-29.0
-25.0
-25.0
-19.0
-12.0
-16.0
-8.0
-2.0
-2.0
1.0
5.0
6.0
4.0
6.0
9.0
12.0
9.0
5.0
5.0
5.0
4.0
6.0
7.0
6.0
6.0
4.0
2.0
4.0
5.0
7.0
6.0
2.0
1.0
1.0
2.0
3.0
2.0
1.0
3.0
1.0
1.0
3.0
1.0
2.0
3.0
3.0
0.0
0.0
0.0
0.0
0.0
0.0
0.0
2.0
1.0
0.0
1.0
0.0
1.0
3.0
1.0
0.0
0.0
2.0
3.0
1.0
-1.0
0.0
1.0
0.0
0.0
0.0
2.0
2.0
3.0
1.0
-2.0
0.0
0.0
0.0
1.0
1.0
2.0
2.0
1.0
1.0
6.0
9.0
8.0
7.0
5.0
4.0
0.0
0.0
0.0
0.0
0.0
0.0
0.0
0.0
0.0
0.0
1.0
5.0
12.0
17.0
22.0
33.0
35.0
28.0
32.0
53.0
83.0
114.0
146.0
163.0
166.0
143.0
62.0
6.0
-9.0
-18.0
-19.0
-21.0
-26.0
-26.0
-18.0
-23.0
-24.0
-24.0
-24.0
-24.0
-23.0
-22.0
-22.0
-21.0
-18.0
-21.0
-23.0
-24.0
-22.0
-22.0
-21.0
-19.0
-20.0
-22.0
-23.0
-22.0
-22.0
-22.0
-24.0
-24.0
-24.0
-26.0
-30.0
-32.0
-34.0
-37.0
-36.0
-38.0
-36.0
-35.0
-34.0
-32.0
-32.0
-28.0
-26.0
-24.0
-24.0
-22.0
-11.0
-5.0
-4.0
-2.0
0.0
5.0
6.0
7.0
9.0
9.0
9.0
10.0
8.0
9.0
9.0
10.0
12.0
12.0
9.0
8.0
9.0
6.0
3.0
4.0
4.0
4.0
5.0
6.0
6.0
6.0
4.0
1.0
0.0
0.0
0.0
3.0
3.0
0.0
0.0
0.0
1.0
1.0
3.0
1.0
0.0
1.0
0.0
0.0
2.0
3.0
2.0
0.0
0.0
0.0
1.0
0.0
0.0
1.0
1.0
0.0
0.0
0.0
0.0
1.0
0.0
-1.0
1.0
2.0
0.0
1.0
3.0
0.0
0.0
0.0
0.0
0.0
0.0
0.0
0.0
1.0
3.0
6.0
6.0
9.0
9.0
5.0
1.0
-1.0
0.0
0.0
2.0
0.0
1.0
-1.0
0.0
0.0
-2.0
-2.0
1.0
8.0
11.0
17.0
33.0
43.0
36.0
35.0
56.0
85.0
115.0
144.0
161.0
167.0
137.0
58.0
6.0
-8.0
-19.0
-23.0
-24.0
-24.0
-24.0
-23.0
-22.0
-22.0
-23.0
-23.0
-24.0
-24.0
-24.0
-21.0
-22.0
-20.0
-20.0
-22.0
-22.0
-21.0
-21.0
-23.0
-21.0
-22.0
-25.0
-24.0
-23.0
-23.0
-23.0
-24.0
-27.0
-29.0
-29.0
-29.0
-31.0
-33.0
-35.0
-37.0
-39.0
-36.0
-34.0
-38.0
-37.0
-35.0
-31.0
-31.0
-31.0
-26.0
-20.0
-14.0
-7.0
-4.0
-1.0
0.0
2.0
4.0
6.0
8.0
8.0
7.0
7.0
7.0
9.0
11.0
10.0
7.0
4.0
4.0
5.0
6.0
6.0
5.0
6.0
5.0
2.0
2.0
4.0
5.0
3.0
1.0
1.0
0.0
0.0
0.0
0.0
0.0
0.0
1.0
0.0
0.0
0.0
0.0
0.0
1.0
1.0
0.0
2.0
0.0
0.0
0.0
0.0
0.0
-1.0
0.0
1.0
0.0
-1.0
-1.0
0.0
0.0
0.0
0.0
-1.0
0.0
0.0
0.0
0.0
1.0
0.0
0.0
-1.0
-3.0
-2.0
-1.0
0.0
-1.0
-1.0
-1.0
0.0
0.0
0.0
1.0
4.0
7.0
1.0
0.0
0.0
-3.0
-4.0
-4.0
-2.0
-2.0
-2.0
-3.0
-5.0
-4.0
-3.0
0.0
9.0
9.0
17.0
28.0
29.0
24.0
32.0
57.0
85.0
113.0
140.0
156.0
156.0
110.0
37.0
0.0
-12.0
-21.0
-25.0
-26.0
-29.0
-29.0
-29.0
-29.0
-29.0
-28.0
-26.0
-28.0
-26.0
-26.0
-27.0
-28.0
-26.0
-26.0
-28.0
-27.0
-24.0
-23.0
-23.0
-25.0
-26.0
-26.0
-28.0
-29.0
-29.0
-29.0
-29.0
-29.0
-29.0
-30.0
-35.0
-39.0
-41.0
-41.0
-41.0
-41.0
-42.0
-44.0
-46.0
-44.0
-40.0
-33.0
-33.0
-33.0
-26.0
-22.0
-16.0
-10.0
-10.0
-5.0
-1.0
0.0
2.0
3.0
3.0
4.0
6.0
7.0
7.0
8.0
11.0
7.0
7.0
5.0
5.0
6.0
6.0
6.0
5.0
7.0
8.0
7.0
7.0
6.0
3.0
1.0
3.0
4.0
3.0
2.0
4.0
4.0
5.0
4.0
4.0
4.0
4.0
3.0
4.0
2.0
1.0
3.0
4.0
3.0
2.0
4.0
4.0
4.0
3.0
3.0
3.0
3.0
4.0
4.0
2.0
2.0
2.0
3.0
4.0
4.0
4.0
3.0
0.0
1.0
2.0
2.0
2.0
3.0
2.0
2.0
3.0
4.0
6.0
3.0
0.0
0.0
1.0
1.0
2.0
7.0
9.0
8.0
12.0
14.0
4.0
0.0
0.0
0.0
3.0
2.0
0.0
0.0
0.0
0.0
0.0
0.0
0.0
10.0
19.0
21.0
32.0
41.0
35.0
33.0
51.0
80.0
110.0
140.0
161.0
172.0
147.0
77.0
17.0
-6.0
-16.0
-21.0
-20.0
-20.0
-20.0
-20.0
-23.0
-25.0
-23.0
-23.0
-22.0
-22.0
-23.0
-23.0
-23.0
-20.0
-21.0
-16.0
-23.0
-23.0
-24.0
-23.0
-23.0
-21.0
-21.0
-23.0
-24.0
-23.0
-23.0
-25.0
-25.0
-24.0
-24.0
-27.0
-29.0
-32.0
-38.0
-39.0
-36.0
-38.0
-42.0
-41.0
-41.0
-40.0
-34.0
-28.0
-26.0
-23.0
-21.0
-18.0
-13.0
-6.0
-3.0
-2.0
-1.0
0.0
5.0
5.0
5.0
9.0
12.0
11.0
10.0
10.0
7.0
7.0
5.0
7.0
5.0
7.0
5.0
3.0
3.0
3.0
3.0
3.0
3.0
3.0
4.0
1.0
0.0
0.0
0.0
0.0
0.0
0.0
1.0
0.0
0.0
-1.0
-1.0
0.0
0.0
0.0
0.0
0.0
0.0
0.0
0.0
0.0
0.0
0.0
-1.0
-1.0
0.0
0.0
0.0
-1.0
0.0
1.0
0.0
0.0
0.0
0.0
0.0
0.0
0.0
0.0
0.0
0.0
0.0
0.0
1.0
1.0
0.0
0.0
0.0
0.0
1.0
0.0
0.0
3.0
6.0
8.0
8.0
4.0
1.0
0.0
-1.0
-2.0
-1.0
0.0
0.0
0.0
-1.0
-1.0
0.0
-1.0
-2.0
11.0
13.0
16.0
30.0
39.0
32.0
31.0
49.0
80.0
111.0
141.0
156.0
166.0
136.0
60.0
8.0
-9.0
-17.0
-22.0
-23.0
-23.0
-24.0
-24.0
-23.0
-23.0
-24.0
-25.0
-26.0
-25.0
-24.0
-23.0
-23.0
-23.0
-22.0
-20.0
-22.0
-23.0
-23.0
-24.0
-23.0
-23.0
-24.0
-22.0
-22.0
-22.0
-22.0
-25.0
-26.0
-32.0
-29.0
-30.0
-32.0
-34.0
-39.0
-36.0
-39.0
-41.0
-42.0
-41.0
-37.0
-33.0
-30.0
-30.0
-29.0
-24.0
-21.0
-15.0
-9.0
-6.0
-3.0
-2.0
0.0
3.0
4.0
7.0
7.0
9.0
8.0
10.0
12.0
11.0
10.0
10.0
10.0
8.0
8.0
4.0
4.0
4.0
4.0
4.0
3.0
3.0
4.0
4.0
4.0
4.0
3.0
2.0
3.0
4.0
4.0
2.0
3.0
4.0
5.0
3.0
0.0
0.0
1.0
0.0
0.0
2.0
2.0
0.0
1.0
3.0
1.0
1.0
1.0
0.0
3.0
3.0
0.0
1.0
4.0
0.0
0.0
0.0
1.0
1.0
2.0
3.0
3.0
2.0
2.0
2.0
0.0
0.0
1.0
0.0
0.0
0.0
0.0
1.0
1.0
3.0
6.0
10.0
10.0
8.0
4.0
0.0
-1.0
-1.0
0.0
1.0
0.0
-2.0
-3.0
-3.0
-2.0
0.0
0.0
4.0
13.0
19.0
25.0
40.0
41.0
27.0
32.0
63.0
96.0
125.0
146.0
157.0
168.0
108.0
32.0
0.0
-11.0
-21.0
-24.0
-24.0
-23.0
-23.0
-24.0
-24.0
-24.0
-26.0
-28.0
-25.0
-23.0
-23.0
-23.0
-22.0
-22.0
-20.0
-20.0
-21.0
-23.0
-22.0
-20.0
-23.0
-23.0
-23.0
-23.0
-24.0
-23.0
-24.0
-25.0
-27.0
-28.0
-29.0
-32.0
-33.0
-33.0
-38.0
-40.0
-39.0
-40.0
-41.0
-39.0
-41.0
-37.0
-32.0
-30.0
-27.0
-23.0
-21.0
-17.0
-12.0
-9.0
-5.0
-2.0
0.0
1.0
2.0
6.0
8.0
9.0
8.0
7.0
7.0
5.0
4.0
6.0
6.0
4.0
2.0
0.0
0.0
1.0
3.0
4.0
1.0
0.0
3.0
2.0
1.0
0.0
2.0
1.0
2.0
0.0
0.0
0.0
0.0
0.0
0.0
1.0
1.0
-1.0
-1.0
0.0
0.0
0.0
0.0
-1.0
-2.0
-1.0
-1.0
-2.0
-2.0
-2.0
-2.0
-1.0
-1.0
-3.0
-2.0
-1.0
-1.0
-2.0
-2.0
0.0
-1.0
-2.0
-1.0
0.0
0.0
0.0
-4.0
-3.0
-3.0
-2.0
-2.0
-1.0
-1.0
-2.0
-3.0
-3.0
-2.0
-2.0
-1.0
0.0
1.0
4.0
3.0
0.0
-3.0
-3.0
-4.0
-3.0
-2.0
-2.0
-4.0
-8.0
-7.0
-6.0
-6.0
-4.0
3.0
10.0
9.0
14.0
28.0
29.0
21.0
35.0
66.0
97.0
125.0
149.0
156.0
156.0
82.0
17.0
-9.0
-17.0
-22.0
-24.0
-27.0
-29.0
-26.0
-26.0
-27.0
-25.0
-25.0
-24.0
-24.0
-25.0
-24.0
-24.0
-24.0
-24.0
-24.0
-25.0
-24.0
-23.0
-24.0
-24.0
-26.0
-28.0
-25.0
-24.0
-26.0
-26.0
-25.0
-25.0
-29.0
-30.0
-29.0
-31.0
-32.0
-34.0
-39.0
-40.0
-41.0
-41.0
-39.0
-40.0
-39.0
-33.0
-31.0
-26.0
-23.0
-23.0
-17.0
-12.0
-9.0
-6.0
-2.0
2.0
5.0
6.0
6.0
8.0
9.0
12.0
16.0
18.0
13.0
13.0
15.0
11.0
9.0
9.0
9.0
9.0
8.0
7.0
6.0
4.0
4.0
4.0
5.0
4.0
5.0
5.0
5.0
2.0
2.0
2.0
1.0
3.0
4.0
3.0
3.0
4.0
3.0
3.0
4.0
3.0
0.0
0.0
1.0
3.0
4.0
2.0
1.0
1.0
2.0
2.0
0.0
1.0
3.0
3.0
3.0
0.0
0.0
0.0
2.0
2.0
3.0
3.0
1.0
0.0
1.0
1.0
1.0
0.0
0.0
1.0
0.0
0.0
0.0
1.0
2.0
3.0
0.0
1.0
4.0
7.0
10.0
6.0
1.0
0.0
0.0
0.0
0.0
0.0
0.0
0.0
0.0
0.0
0.0
0.0
0.0
6.0
14.0
15.0
23.0
32.0
36.0
31.0
39.0
67.0
96.0
129.0
151.0
158.0
170.0
100.0
24.0
-1.0
-11.0
-18.0
-20.0
-21.0
-22.0
-24.0
-24.0
-23.0
-23.0
-24.0
-22.0
-22.0
-23.0
-24.0
-22.0
-23.0
-22.0
-21.0
-22.0
-22.0
-22.0
-25.0
-25.0
-23.0
-22.0
-21.0
-25.0
-23.0
-20.0
-23.0
-27.0
-27.0
-31.0
-31.0
-29.0
-33.0
-35.0
-41.0
-39.0
-35.0
-41.0
-42.0
-39.0
-37.0
-35.0
-30.0
-25.0
-28.0
-25.0
-18.0
-14.0
-11.0
-9.0
-3.0
1.0
5.0
6.0
5.0
5.0
8.0
10.0
10.0
9.0
9.0
8.0
8.0
7.0
6.0
7.0
7.0
4.0
5.0
8.0
5.0
1.0
2.0
3.0
2.0
3.0
3.0
3.0
3.0
4.0
4.0
2.0
2.0
0.0
3.0
4.0
3.0
0.0
0.0
0.0
0.0
1.0
2.0
1.0
2.0
1.0
0.0
0.0
0.0
0.0
1.0
0.0
0.0
0.0
1.0
0.0
-1.0
0.0
0.0
0.0
0.0
0.0
0.0
0.0
0.0
0.0
0.0
0.0
0.0
1.0
2.0
0.0
0.0
0.0
0.0
0.0
0.0
2.0
4.0
7.0
8.0
8.0
2.0
-1.0
-2.0
0.0
1.0
0.0
-2.0
-3.0
-2.0
-1.0
-1.0
-3.0
-1.0
5.0
12.0
15.0
26.0
37.0
36.0
28.0
38.0
66.0
98.0
128.0
149.0
155.0
158.0
95.0
20.0
-6.0
-14.0
-20.0
-24.0
-25.0
-21.0
-26.0
-27.0
-25.0
-25.0
-28.0
-27.0
-27.0
-27.0
-28.0
-25.0
-24.0
-24.0
-24.0
-24.0
-24.0
-24.0
-24.0
-23.0
-23.0
-24.0
-25.0
-24.0
-24.0
-26.0
-29.0
-29.0
-29.0
-28.0
-27.0
-31.0
-35.0
-37.0
-39.0
-42.0
-44.0
-42.0
-43.0
-42.0
-40.0
-39.0
-34.0
-29.0
-29.0
-24.0
-19.0
-13.0
-12.0
-7.0
-2.0
0.0
0.0
3.0
5.0
6.0
5.0
8.0
9.0
8.0
7.0
8.0
8.0
8.0
6.0
4.0
4.0
6.0
6.0
7.0
5.0
6.0
4.0
3.0
2.0
1.0
3.0
1.0
1.0
2.0
0.0
0.0
0.0
1.0
2.0
0.0
0.0
2.0
1.0
1.0
0.0
0.0
1.0
0.0
2.0
0.0
0.0
0.0
0.0
0.0
0.0
0.0
0.0
0.0
0.0
0.0
0.0
0.0
0.0
0.0
0.0
0.0
0.0
0.0
0.0
0.0
-1.0
0.0
-1.0
0.0
0.0
0.0
0.0
2.0
2.0
0.0
0.0
0.0
2.0
3.0
6.0
8.0
6.0
1.0
0.0
0.0
0.0
0.0
-1.0
0.0
-1.0
-3.0
-1.0
-1.0
-2.0
0.0
6.0
16.0
21.0
31.0
41.0
37.0
30.0
44.0
72.0
104.0
134.0
155.0
163.0
156.0
84.0
17.0
-4.0
-16.0
-19.0
-19.0
-25.0
-25.0
-26.0
-26.0
-26.0
-26.0
-24.0
-23.0
-23.0
-23.0
-23.0
-22.0
-24.0
-24.0
-24.0
-24.0
-24.0
-23.0
-23.0
-23.0
-24.0
-25.0
-26.0
-26.0
-27.0
-29.0
-29.0
-29.0
-29.0
-30.0
-33.0
-33.0
-34.0
-35.0
-42.0
-42.0
-45.0
-45.0
-44.0
-44.0
-44.0
-36.0
-33.0
-36.0
-30.0
-24.0
-23.0
-22.0
-16.0
-10.0
-5.0
0.0
0.0
4.0
5.0
4.0
4.0
6.0
7.0
7.0
5.0
5.0
4.0
2.0
2.0
3.0
1.0
0.0
1.0
3.0
2.0
0.0
0.0
0.0
-1.0
-1.0
0.0
0.0
0.0
-1.0
-1.0
-1.0
-2.0
0.0
0.0
-1.0
-3.0
-2.0
-2.0
-1.0
-1.0
-2.0
-1.0
0.0
0.0
-1.0
-2.0
-3.0
-2.0
-2.0
-1.0
-1.0
-1.0
0.0
0.0
-1.0
-2.0
-2.0
-3.0
-2.0
-1.0
-3.0
-3.0
-1.0
-2.0
-4.0
-3.0
-3.0
-3.0
-3.0
-3.0
-3.0
-1.0
-2.0
-2.0
-2.0
0.0
0.0
0.0
-2.0
0.0
2.0
3.0
3.0
0.0
-2.0
-4.0
-5.0
-2.0
-2.0
-3.0
-1.0
-3.0
-4.0
-5.0
-4.0
-3.0
3.0
11.0
12.0
18.0
27.0
28.0
26.0
36.0
63.0
94.0
124.0
146.0
156.0
150.0
98.0
28.0
-3.0
-16.0
-20.0
-21.0
-21.0
-21.0
-25.0
-25.0
-25.0
-25.0
-25.0
-25.0
-24.0
-22.0
-23.0
-24.0
-22.0
-22.0
-20.0
-20.0
-21.0
-19.0
-20.0
-22.0
-23.0
-22.0
-22.0
-21.0
-21.0
-23.0
-25.0
-25.0
-25.0
-26.0
-27.0
-29.0
-30.0
-32.0
-34.0
-37.0
-35.0
-40.0
-39.0
-40.0
-34.0
-32.0
-32.0
-30.0
-25.0
-21.0
-20.0
-19.0
-10.0
-8.0
-1.0
0.0
3.0
5.0
6.0
9.0
10.0
11.0
11.0
11.0
13.0
14.0
12.0
10.0
8.0
8.0
9.0
8.0
6.0
4.0
4.0
6.0
6.0
4.0
4.0
3.0
2.0
2.0
3.0
2.0
1.0
4.0
3.0
1.0
1.0
2.0
0.0
1.0
0.0
0.0
1.0
2.0
2.0
3.0
2.0
0.0
0.0
1.0
1.0
0.0
0.0
0.0
3.0
3.0
0.0
0.0
0.0
0.0
1.0
1.0
1.0
1.0
0.0
0.0
0.0
0.0
-1.0
-2.0
-1.0
0.0
0.0
0.0
0.0
0.0
0.0
0.0
0.0
0.0
0.0
3.0
6.0
9.0
8.0
2.0
0.0
-4.0
0.0
0.0
-2.0
0.0
-1.0
-2.0
-3.0
-2.0
-1.0
0.0
2.0
9.0
13.0
21.0
36.0
42.0
32.0
34.0
57.0
87.0
117.0
142.0
156.0
158.0
122.0
46.0
0.0
-12.0
-17.0
-20.0
-22.0
-23.0
-22.0
-23.0
-22.0
-22.0
-25.0
-25.0
-24.0
-23.0
-21.0
-21.0
-23.0
-24.0
-24.0
-24.0
-24.0
-23.0
-23.0
-23.0
-21.0
-21.0
-23.0
-24.0
-24.0
-24.0
-24.0
-23.0
-23.0
-26.0
-30.0
-32.0
-32.0
-34.0
-35.0
-37.0
-40.0
-39.0
-40.0
-37.0
-35.0
-35.0
-33.0
-32.0
-28.0
-24.0
-19.0
-13.0
-10.0
-5.0
-3.0
0.0
0.0
4.0
4.0
5.0
7.0
9.0
11.0
12.0
12.0
8.0
7.0
7.0
8.0
9.0
8.0
5.0
4.0
5.0
7.0
5.0
4.0
4.0
4.0
3.0
2.0
3.0
1.0
0.0
1.0
2.0
4.0
4.0
4.0
4.0
3.0
1.0
0.0
0.0
0.0
1.0
1.0
0.0
0.0
1.0
2.0
1.0
0.0
1.0
0.0
0.0
0.0
0.0
0.0
0.0
0.0
0.0
0.0
0.0
0.0
0.0
0.0
0.0
1.0
0.0
0.0
0.0
0.0
0.0
0.0
1.0
0.0
0.0
0.0
0.0
0.0
0.0
4.0
7.0
6.0
5.0
6.0
1.0
0.0
-1.0
-3.0
-2.0
-1.0
-2.0
-3.0
-3.0
-3.0
-3.0
-3.0
-1.0
9.0
17.0
19.0
32.0
40.0
36.0
31.0
49.0
77.0
105.0
133.0
149.0
161.0
135.0
64.0
10.0
-7.0
-16.0
-22.0
-24.0
-24.0
-23.0
-23.0
-24.0
-23.0
-21.0
-23.0
-24.0
-22.0
-22.0
-24.0
-24.0
-24.0
-22.0
-24.0
-23.0
-20.0
-20.0
-23.0
-23.0
-23.0
-22.0
-22.0
-23.0
-24.0
-23.0
-25.0
-28.0
-27.0
-28.0
-29.0
-31.0
-32.0
-33.0
-36.0
-40.0
-40.0
-39.0
-39.0
-38.0
-35.0
-33.0
-32.0
-29.0
-25.0
-23.0
-20.0
-12.0
-6.0
-2.0
0.0
1.0
2.0
7.0
7.0
8.0
11.0
10.0
10.0
9.0
10.0
9.0
9.0
8.0
7.0
7.0
7.0
5.0
6.0
6.0
5.0
5.0
4.0
5.0
5.0
5.0
5.0
4.0
2.0
2.0
1.0
2.0
3.0
2.0
2.0
4.0
3.0
3.0
2.0
0.0
1.0
0.0
0.0
0.0
0.0
0.0
0.0
0.0
0.0
0.0
1.0
0.0
0.0
0.0
0.0
0.0
0.0
0.0
0.0
0.0
0.0
0.0
0.0
0.0
1.0
0.0
0.0
0.0
0.0
0.0
0.0
0.0
0.0
0.0
1.0
0.0
0.0
0.0
0.0
2.0
4.0
7.0
7.0
5.0
0.0
0.0
-3.0
-1.0
0.0
0.0
-2.0
-1.0
-2.0
-2.0
-2.0
-1.0
0.0
15.0
17.0
22.0
38.0
40.0
27.0
29.0
51.0
79.0
111.0
138.0
151.0
160.0
124.0
53.0
4.0
-14.0
-20.0
-23.0
-24.0
-25.0
-25.0
-24.0
-25.0
-25.0
-26.0
-27.0
-27.0
-28.0
-26.0
-25.0
-24.0
-25.0
-23.0
-24.0
-24.0
-24.0
-24.0
-24.0
-26.0
-26.0
-24.0
-25.0
-26.0
-30.0
-29.0
-29.0
-31.0
-32.0
-29.0
-31.0
-37.0
-39.0
-40.0
-42.0
-42.0
-42.0
-43.0
-44.0
-44.0
-42.0
-39.0
-34.0
-30.0
-28.0
-25.0
-21.0
-17.0
-10.0
-7.0
-4.0
0.0
0.0
3.0
4.0
4.0
4.0
4.0
5.0
4.0
6.0
6.0
5.0
4.0
3.0
1.0
0.0
2.0
1.0
0.0
0.0
0.0
0.0
0.0
0.0
2.0
1.0
0.0
0.0
-1.0
-2.0
-1.0
-1.0
-1.0
0.0
0.0
0.0
0.0
0.0
0.0
-1.0
-2.0
-1.0
0.0
0.0
-2.0
-1.0
-1.0
-3.0
-2.0
0.0
-3.0
-2.0
-2.0
-3.0
-3.0
-2.0
0.0
0.0
-1.0
-1.0
-1.0
0.0
0.0
0.0
0.0
0.0
0.0
-1.0
0.0
-1.0
-1.0
0.0
0.0
-1.0
0.0
0.0
0.0
1.0
2.0
4.0
5.0
2.0
0.0
0.0
0.0
0.0
0.0
0.0
0.0
0.0
0.0
0.0
0.0
0.0
8.0
19.0
19.0
25.0
41.0
40.0
34.0
53.0
77.0
103.0
134.0
153.0
167.0
157.0
89.0
26.0
0.0
-8.0
-11.0
-12.0
-13.0
-16.0
-18.0
-17.0
-17.0
-19.0
-18.0
-18.0
-16.0
-17.0
-15.0
-13.0
-12.0
-15.0
-19.0
-16.0
-16.0
-15.0
-12.0
-14.0
-15.0
-13.0
-12.0
-14.0
-18.0
-19.0
-16.0
-19.0
-20.0
-22.0
-21.0
-24.0
-25.0
-28.0
-32.0
-31.0
-32.0
-35.0
-35.0
-33.0
-30.0
-27.0
-24.0
-20.0
-19.0
-16.0
-12.0
-8.0
-4.0
0.0
2.0
3.0
6.0
7.0
9.0
12.0
15.0
18.0
12.0
12.0
14.0
18.0
14.0
13.0
11.0
10.0
10.0
11.0
11.0
11.0
7.0
8.0
7.0
8.0
8.0
7.0
4.0
7.0
5.0
6.0
4.0
5.0
4.0
4.0
4.0
4.0
3.0
3.0
4.0
3.0
3.0
3.0
3.0
3.0
4.0
2.0
1.0
2.0
3.0
0.0
0.0
4.0
3.0
1.0
0.0
0.0
2.0
1.0
1.0
1.0
3.0
3.0
2.0
1.0
0.0
1.0
1.0
2.0
2.0
0.0
0.0
0.0
2.0
0.0
0.0
1.0
4.0
6.0
7.0
9.0
9.0
3.0
0.0
0.0
0.0
1.0
0.0
0.0
0.0
0.0
0.0
0.0
-1.0
0.0
6.0
14.0
20.0
28.0
43.0
39.0
29.0
43.0
74.0
100.0
134.0
152.0
159.0
157.0
75.0
14.0
-3.0
-14.0
-20.0
-22.0
-23.0
-23.0
-21.0
-22.0
-24.0
-24.0
-24.0
-25.0
-24.0
-22.0
-22.0
-24.0
-24.0
-23.0
-23.0
-24.0
-24.0
-23.0
-23.0
-23.0
-23.0
-23.0
-23.0
-23.0
-23.0
-23.0
-24.0
-24.0
-25.0
-27.0
-29.0
-29.0
-31.0
-36.0
-38.0
-35.0
-33.0
-38.0
-41.0
-39.0
-35.0
-31.0
-29.0
-26.0
-23.0
-21.0
-20.0
-14.0
-7.0
-3.0
0.0
1.0
4.0
5.0
6.0
8.0
8.0
10.0
10.0
10.0
9.0
12.0
10.0
8.0
7.0
7.0
7.0
7.0
6.0
4.0
5.0
4.0
5.0
5.0
5.0
2.0
2.0
2.0
2.0
3.0
4.0
3.0
3.0
0.0
2.0
0.0
2.0
3.0
3.0
2.0
1.0
2.0
3.0
2.0
0.0
0.0
0.0
0.0
0.0
0.0
1.0
0.0
0.0
0.0
0.0
1.0
1.0
1.0
1.0
0.0
1.0
3.0
0.0
-1.0
0.0
0.0
0.0
0.0
0.0
0.0
0.0
0.0
0.0
0.0
0.0
0.0
4.0
4.0
6.0
8.0
6.0
3.0
0.0
0.0
0.0
0.0
-1.0
0.0
0.0
0.0
-1.0
-3.0
-2.0
-2.0
2.0
15.0
21.0
21.0
34.0
41.0
33.0
32.0
58.0
88.0
115.0
143.0
156.0
162.0
121.0
37.0
0.0
-7.0
-17.0
-18.0
-23.0
-24.0
-24.0
-21.0
-22.0
-24.0
-25.0
-24.0
-23.0
-23.0
-24.0
-23.0
-21.0
-20.0
-20.0
-21.0
-22.0
-22.0
-20.0
-19.0
-20.0
-21.0
-22.0
-22.0
-24.0
-25.0
-24.0
-23.0
-23.0
-27.0
-29.0
-29.0
-30.0
-29.0
-35.0
-40.0
-35.0
-35.0
-39.0
-35.0
-36.0
-35.0
-31.0
-29.0
-26.0
-21.0
-20.0
-16.0
-8.0
-6.0
-3.0
0.0
1.0
4.0
8.0
10.0
9.0
8.0
8.0
9.0
9.0
8.0
8.0
8.0
7.0
7.0
7.0
5.0
4.0
4.0
6.0
6.0
4.0
4.0
4.0
4.0
4.0
4.0
4.0
5.0
4.0
4.0
4.0
5.0
4.0
3.0
2.0
1.0
1.0
2.0
3.0
3.0
1.0
0.0
1.0
3.0
2.0
0.0
1.0
1.0
0.0
0.0
2.0
2.0
0.0
0.0
1.0
1.0
0.0
2.0
3.0
1.0
0.0
1.0
2.0
0.0
1.0
1.0
0.0
0.0
0.0
0.0
0.0
0.0
0.0
0.0
1.0
3.0
5.0
6.0
7.0
4.0
0.0
-2.0
-3.0
-3.0
-2.0
-2.0
-2.0
-3.0
-4.0
-3.0
-4.0
-5.0
0.0
8.0
12.0
17.0
25.0
28.0
25.0
31.0
54.0
82.0
109.0
137.0
149.0
149.0
111.0
35.0
-5.0
-18.0
-23.0
-25.0
-31.0
-31.0
-31.0
-26.0
-31.0
-32.0
-32.0
-32.0
-31.0
-32.0
-28.0
-30.0
-26.0
-27.0
-29.0
-29.0
-26.0
-27.0
-30.0
-31.0
-32.0
-30.0
-29.0
-29.0
-29.0
-30.0
-32.0
-31.0
-32.0
-34.0
-37.0
-40.0
-42.0
-41.0
-45.0
-48.0
-47.0
-46.0
-45.0
-45.0
-44.0
-42.0
-41.0
-40.0
-30.0
-27.0
-27.0
-22.0
-16.0
-12.0
-8.0
-4.0
-4.0
0.0
0.0
1.0
4.0
5.0
3.0
1.0
3.0
3.0
1.0
1.0
2.0
1.0
1.0
0.0
0.0
0.0
0.0
0.0
0.0
0.0
-1.0
-1.0
0.0
0.0
-2.0
-2.0
0.0
0.0
0.0
-1.0
-3.0
0.0
0.0
-1.0
-1.0
-2.0
0.0
0.0
0.0
0.0
0.0
0.0
0.0
0.0
-2.0
-2.0
-1.0
-1.0
-2.0
-2.0
-2.0
-1.0
0.0
0.0
0.0
0.0
-1.0
-3.0
-1.0
0.0
-2.0
-1.0
0.0
0.0
0.0
0.0
0.0
0.0
0.0
1.0
2.0
5.0
8.0
9.0
0.0
-2.0
-2.0
-2.0
-1.0
-1.0
2.0
0.0
-1.0
0.0
0.0
0.0
1.0
10.0
18.0
19.0
25.0
36.0
35.0
33.0
45.0
73.0
104.0
136.0
155.0
162.0
147.0
88.0
24.0
-4.0
-12.0
-14.0
-19.0
-20.0
-22.0
-22.0
-22.0
-23.0
-21.0
-21.0
-20.0
-20.0
-19.0
-16.0
-18.0
-20.0
-21.0
-18.0
-19.0
-20.0
-20.0
-20.0
-21.0
-21.0
-18.0
-14.0
-19.0
-22.0
-21.0
-21.0
-22.0
-24.0
-24.0
-26.0
-29.0
-30.0
-31.0
-31.0
-32.0
-36.0
-39.0
-39.0
-37.0
-34.0
-30.0
-28.0
-26.0
-23.0
-18.0
-11.0
-7.0
-5.0
-2.0
0.0
0.0
1.0
6.0
8.0
8.0
11.0
9.0
11.0
12.0
12.0
12.0
12.0
11.0
8.0
8.0
9.0
11.0
9.0
5.0
4.0
4.0
4.0
4.0
4.0
3.0
2.0
1.0
2.0
3.0
3.0
3.0
3.0
2.0
2.0
3.0
3.0
3.0
2.0
1.0
1.0
3.0
0.0
0.0
0.0
0.0
4.0
4.0
3.0
0.0
0.0
2.0
0.0
0.0
2.0
1.0
1.0
0.0
0.0
2.0
1.0
0.0
0.0
0.0
0.0
0.0
0.0
0.0
0.0
0.0
0.0
0.0
2.0
2.0
1.0
1.0
2.0
3.0
6.0
8.0
7.0
3.0
0.0
0.0
0.0
0.0
0.0
0.0
0.0
-2.0
-2.0
-2.0
-2.0
0.0
5.0
17.0
19.0
25.0
39.0
40.0
31.0
40.0
67.0
93.0
123.0
147.0
158.0
156.0
101.0
31.0
0.0
-12.0
-20.0
-23.0
-24.0
-24.0
-24.0
-23.0
-23.0
-24.0
-24.0
-24.0
-24.0
-23.0
-23.0
-23.0
-23.0
-22.0
-21.0
-20.0
-21.0
-20.0
-22.0
-24.0
-24.0
-23.0
-23.0
-23.0
-22.0
-22.0
-23.0
-25.0
-24.0
-27.0
-29.0
-29.0
-29.0
-32.0
-37.0
-41.0
-41.0
-41.0
-41.0
-36.0
-34.0
-34.0
-31.0
-29.0
-25.0
-22.0
-17.0
-12.0
-8.0
-3.0
0.0
0.0
0.0
1.0
5.0
8.0
13.0
10.0
11.0
10.0
11.0
10.0
9.0
9.0
9.0
8.0
8.0
8.0
8.0
7.0
5.0
4.0
4.0
5.0
4.0
4.0
5.0
6.0
5.0
4.0
4.0
3.0
3.0
3.0
3.0
3.0
1.0
0.0
1.0
2.0
0.0
0.0
2.0
2.0
2.0
4.0
3.0
2.0
2.0
3.0
3.0
2.0
2.0
1.0
1.0
1.0
0.0
0.0
2.0
0.0
0.0
1.0
0.0
0.0
0.0
0.0
1.0
0.0
0.0
0.0
0.0
0.0
0.0
0.0
0.0
0.0
2.0
5.0
6.0
8.0
7.0
3.0
0.0
0.0
0.0
0.0
-1.0
-1.0
-2.0
-4.0
-5.0
-5.0
-7.0
-3.0
6.0
12.0
12.0
26.0
41.0
36.0
30.0
46.0
71.0
98.0
130.0
151.0
158.0
142.0
70.0
10.0
-13.0
-20.0
-22.0
-24.0
-27.0
-25.0
-23.0
-25.0
-29.0
-32.0
-30.0
-29.0
-30.0
-29.0
-28.0
-27.0
-29.0
-28.0
-26.0
-26.0
-26.0
-25.0
-29.0
-33.0
-32.0
-30.0
-29.0
-32.0
-31.0
-31.0
-27.0
-28.0
-31.0
-36.0
-38.0
-44.0
-46.0
-46.0
-47.0
-49.0
-50.0
-50.0
-48.0
-45.0
-39.0
-34.0
-33.0
-33.0
-30.0
-25.0
-17.0
-15.0
-15.0
-10.0
-5.0
-1.0
1.0
4.0
4.0
6.0
7.0
6.0
6.0
8.0
8.0
8.0
9.0
4.0
4.0
4.0
3.0
2.0
3.0
3.0
2.0
3.0
0.0
2.0
1.0
0.0
2.0
2.0
-1.0
0.0
-2.0
-1.0
-2.0
-1.0
-1.0
0.0
-1.0
-3.0
-1.0
0.0
0.0
-3.0
-5.0
-3.0
-2.0
-3.0
-2.0
-1.0
-1.0
-2.0
-4.0
-4.0
-6.0
-1.0
0.0
-1.0
-8.0
-7.0
-3.0
-5.0
-5.0
-5.0
-3.0
-5.0
-5.0
0.0
-3.0
-7.0
-5.0
-5.0
-4.0
-4.0
-7.0
-6.0
-4.0
-1.0
1.0
2.0
3.0
0.0
-2.0
-5.0
-8.0
-7.0
-4.0
-5.0
-8.0
-7.0
-6.0
-8.0
-11.0
-10.0
-5.0
2.0
10.0
10.0
15.0
27.0
27.0
22.0
33.0
61.0
92.0
122.0
141.0
147.0
155.0
86.0
15.0
-16.0
-25.0
-33.0
-35.0
-36.0
-35.0
-36.0
-34.0
-32.0
-32.0
-33.0
-33.0
-32.0
-30.0
-27.0
-28.0
-29.0
-28.0
-27.0
-28.0
-26.0
-25.0
-25.0
-25.0
-27.0
-28.0
-30.0
-29.0
-29.0
-28.0
-27.0
-29.0
-29.0
-32.0
-35.0
-40.0
-37.0
-40.0
-41.0
-45.0
-47.0
-45.0
-45.0
-42.0
-42.0
-41.0
-36.0
-33.0
-30.0
-27.0
-23.0
-18.0
-12.0
-8.0
-5.0
-1.0
0.0
2.0
4.0
6.0
7.0
7.0
5.0
7.0
8.0
7.0
6.0
5.0
5.0
5.0
5.0
4.0
3.0
4.0
3.0
3.0
4.0
4.0
3.0
2.0
1.0
1.0
1.0
3.0
4.0
0.0
0.0
1.0
3.0
4.0
2.0
0.0
0.0
1.0
2.0
2.0
3.0
4.0
2.0
0.0
2.0
4.0
1.0
-1.0
0.0
1.0
1.0
1.0
0.0
0.0
3.0
4.0
5.0
5.0
0.0
0.0
2.0
2.0
3.0
1.0
1.0
6.0
5.0
4.0
2.0
2.0
1.0
3.0
5.0
6.0
6.0
7.0
16.0
20.0
15.0
9.0
6.0
5.0
4.0
4.0
5.0
7.0
8.0
5.0
3.0
5.0
5.0
6.0
16.0
27.0
27.0
31.0
43.0
43.0
40.0
55.0
83.0
112.0
144.0
166.0
168.0
168.0
96.0
26.0
0.0
-10.0
-11.0
-20.0
-20.0
-12.0
-12.0
-17.0
-20.0
-21.0
-17.0
-12.0
-16.0
-16.0
-14.0
-15.0
-12.0
-10.0
-10.0
-11.0
-13.0
-15.0
-14.0
-10.0
-8.0
-9.0
-10.0
-9.0
-9.0
-10.0
-9.0
-12.0
-15.0
-18.0
-20.0
-20.0
-24.0
-24.0
-24.0
-27.0
-28.0
-26.0
-25.0
-25.0
-25.0
-28.0
-21.0
-20.0
-16.0
-10.0
-5.0
-3.0
-2.0
1.0
5.0
9.0
11.0
16.0
22.0
24.0
24.0
24.0
25.0
24.0
24.0
23.0
22.0
21.0
23.0
22.0
19.0
18.0
18.0
21.0
18.0
12.0
14.0
15.0
10.0
10.0
11.0
11.0
10.0
8.0
8.0
8.0
5.0
5.0
5.0
5.0
6.0
6.0
7.0
6.0
5.0
6.0
7.0
7.0
3.0
2.0
3.0
5.0
5.0
5.0
6.0
6.0
5.0
4.0
4.0
4.0
4.0
4.0
5.0
7.0
5.0
4.0
5.0
4.0
4.0
4.0
4.0
2.0
1.0
1.0
4.0
4.0
5.0
3.0
5.0
7.0
9.0
11.0
12.0
10.0
5.0
3.0
2.0
3.0
4.0
2.0
3.0
1.0
1.0
0.0
0.0
0.0
2.0
11.0
19.0
22.0
29.0
40.0
41.0
36.0
48.0
75.0
105.0
133.0
155.0
165.0
163.0
103.0
28.0
-1.0
-9.0
-14.0
-18.0
-20.0
-21.0
-18.0
-14.0
-22.0
-21.0
-18.0
-19.0
-20.0
-16.0
-17.0
-20.0
-20.0
-22.0
-20.0
-17.0
-16.0
-18.0
-20.0
-20.0
-17.0
-14.0
-17.0
-18.0
-19.0
-22.0
-23.0
-22.0
-24.0
-26.0
-28.0
-28.0
-31.0
-32.0
-34.0
-33.0
-35.0
-40.0
-38.0
-36.0
-33.0
-32.0
-28.0
-26.0
-23.0
-17.0
-11.0
-10.0
-8.0
-5.0
0.0
3.0
5.0
5.0
7.0
9.0
11.0
12.0
13.0
16.0
14.0
14.0
11.0
9.0
9.0
9.0
7.0
7.0
8.0
7.0
6.0
6.0
8.0
5.0
3.0
4.0
5.0
3.0
4.0
4.0
3.0
2.0
4.0
3.0
2.0
1.0
0.0
0.0
1.0
3.0
3.0
2.0
2.0
3.0
4.0
3.0
1.0
2.0
0.0
0.0
1.0
2.0
0.0
0.0
2.0
1.0
0.0
2.0
2.0
0.0
0.0
1.0
1.0
1.0
2.0
1.0
0.0
0.0
0.0
0.0
0.0
0.0
0.0
4.0
1.0
1.0
6.0
7.0
7.0
6.0
1.0
0.0
0.0
0.0
0.0
2.0
2.0
0.0
0.0
-2.0
-2.0
-2.0
0.0
7.0
15.0
17.0
31.0
42.0
39.0
34.0
47.0
73.0
103.0
133.0
155.0
168.0
154.0
91.0
23.0
-3.0
-10.0
-17.0
-21.0
-22.0
-20.0
-23.0
-23.0
-23.0
-22.0
-23.0
-22.0
-21.0
-20.0
-22.0
-24.0
-24.0
-22.0
-23.0
-21.0
-21.0
-20.0
-20.0
-21.0
-22.0
-21.0
-17.0
-20.0
-24.0
-24.0
-25.0
-26.0
-26.0
-27.0
-27.0
-27.0
-31.0
-34.0
-35.0
-39.0
-41.0
-41.0
-38.0
-36.0
-39.0
-38.0
-34.0
-29.0
-27.0
-22.0
-17.0
-9.0
-7.0
-2.0
0.0
2.0
5.0
6.0
8.0
8.0
11.0
11.0
13.0
9.0
9.0
11.0
11.0
8.0
8.0
11.0
9.0
6.0
7.0
6.0
9.0
7.0
3.0
3.0
4.0
5.0
5.0
5.0
4.0
3.0
3.0
3.0
4.0
4.0
3.0
3.0
2.0
0.0
0.0
0.0
0.0
0.0
2.0
4.0
0.0
0.0
0.0
0.0
1.0
1.0
2.0
3.0
0.0
-1.0
0.0
-1.0
0.0
1.0
0.0
0.0
0.0
-1.0
0.0
0.0
0.0
0.0
0.0
0.0
-1.0
-2.0
-1.0
-2.0
-2.0
-1.0
-2.0
-2.0
0.0
1.0
3.0
4.0
4.0
-5.0
-5.0
-4.0
-4.0
-4.0
-6.0
-6.0
-6.0
-8.0
-8.0
-8.0
-5.0
-3.0
2.0
9.0
8.0
19.0
30.0
28.0
23.0
38.0
67.0
95.0
123.0
143.0
157.0
140.0
77.0
16.0
-11.0
-21.0
-24.0
-26.0
-27.0
-27.0
-27.0
-27.0
-29.0
-29.0
-27.0
-29.0
-29.0
-29.0
-28.0
-25.0
-26.0
-26.0
-29.0
-28.0
-23.0
-26.0
-27.0
-27.0
-27.0
-26.0
-28.0
-29.0
-27.0
-27.0
-28.0
-32.0
-31.0
-35.0
-39.0
-41.0
-41.0
-41.0
-44.0
-45.0
-43.0
-41.0
-43.0
-45.0
-44.0
-43.0
-41.0
-36.0
-28.0
-24.0
-20.0
-13.0
-8.0
-3.0
-1.0
0.0
4.0
4.0
4.0
8.0
7.0
6.0
4.0
6.0
5.0
4.0
4.0
4.0
3.0
1.0
2.0
0.0
2.0
2.0
0.0
0.0
0.0
0.0
0.0
0.0
0.0
1.0
0.0
-1.0
-1.0
0.0
0.0
0.0
0.0
0.0
-1.0
-2.0
-2.0
-2.0
-1.0
0.0
0.0
0.0
0.0
0.0
1.0
0.0
-1.0
-1.0
-1.0
-1.0
0.0
0.0
0.0
2.0
0.0
0.0
0.0
0.0
0.0
1.0
2.0
3.0
1.0
1.0
2.0
0.0
0.0
0.0
0.0
0.0
2.0
4.0
4.0
2.0
1.0
3.0
5.0
7.0
9.0
8.0
1.0
-2.0
-1.0
2.0
3.0
0.0
0.0
3.0
-1.0
0.0
1.0
0.0
0.0
15.0
22.0
21.0
30.0
32.0
30.0
32.0
61.0
88.0
117.0
142.0
153.0
170.0
133.0
57.0
9.0
-5.0
-13.0
-19.0
-22.0
-23.0
-24.0
-23.0
-23.0
-23.0
-22.0
-22.0
-20.0
-20.0
-24.0
-24.0
-24.0
-22.0
-20.0
-21.0
-22.0
-23.0
-23.0
-23.0
-20.0
-20.0
-24.0
-24.0
-27.0
-28.0
-22.0
-22.0
-23.0
-28.0
-30.0
-29.0
-29.0
-30.0
-34.0
-41.0
-42.0
-38.0
-39.0
-41.0
-42.0
-35.0
-28.0
-25.0
-24.0
-22.0
-17.0
-12.0
-8.0
-5.0
0.0
2.0
4.0
4.0
7.0
10.0
9.0
9.0
11.0
11.0
12.0
13.0
17.0
8.0
6.0
8.0
7.0
1.0
0.0
3.0
4.0
3.0
3.0
0.0
0.0
1.0
5.0
4.0
1.0
0.0
0.0
0.0
0.0
0.0
0.0
0.0
-1.0
-2.0
0.0
0.0
-1.0
0.0
0.0
-1.0
-2.0
-1.0
-1.0
0.0
-1.0
0.0
0.0
0.0
0.0
0.0
0.0
0.0
0.0
0.0
0.0
0.0
0.0
-1.0
0.0
-1.0
1.0
0.0
0.0
0.0
0.0
1.0
1.0
0.0
0.0
0.0
0.0
0.0
1.0
5.0
5.0
2.0
0.0
-2.0
-2.0
-2.0
-1.0
0.0
0.0
0.0
-1.0
-3.0
-5.0
-4.0
-3.0
0.0
10.0
20.0
17.0
22.0
28.0
25.0
26.0
44.0
76.0
102.0
135.0
154.0
163.0
132.0
47.0
1.0
-19.0
-24.0
-28.0
-29.0
-29.0
-29.0
-27.0
-29.0
-27.0
-25.0
-25.0
-26.0
-25.0
-24.0
-24.0
-24.0
-24.0
-25.0
-24.0
-24.0
-22.0
-21.0
-23.0
-25.0
-25.0
-24.0
-24.0
-23.0
-23.0
-24.0
-24.0
-25.0
-25.0
-27.0
-32.0
-26.0
-29.0
-30.0
-31.0
-31.0
-32.0
-29.0
-31.0
-29.0
-29.0
-29.0
-25.0
-18.0
-16.0
-11.0
-7.0
-3.0
0.0
2.0
6.0
10.0
11.0
11.0
12.0
18.0
23.0
22.0
20.0
19.0
21.0
22.0
21.0
18.0
11.0
11.0
12.0
12.0
13.0
20.0
17.0
18.0
12.0
12.0
11.0
11.0
9.0
4.0
4.0
4.0
4.0
5.0
7.0
4.0
6.0
7.0
5.0
4.0
4.0
5.0
6.0
4.0
4.0
4.0
4.0
5.0
5.0
4.0
4.0
4.0
4.0
4.0
4.0
4.0
5.0
5.0
7.0
6.0
5.0
6.0
7.0
5.0
5.0
6.0
5.0
5.0
6.0
5.0
5.0
5.0
6.0
8.0
10.0
11.0
19.0
21.0
18.0
10.0
7.0
7.0
8.0
7.0
5.0
2.0
2.0
3.0
3.0
3.0
4.0
6.0
16.0
24.0
27.0
36.0
48.0
47.0
45.0
57.0
82.0
110.0
143.0
164.0
172.0
169.0
96.0
24.0
1.0
-3.0
-8.0
-10.0
-12.0
-12.0
-12.0
-12.0
-13.0
-14.0
-17.0
-13.0
-12.0
-12.0
-12.0
-12.0
-11.0
-10.0
-12.0
-12.0
-11.0
-13.0
-12.0
-12.0
-12.0
-12.0
-12.0
-11.0
-11.0
-12.0
-14.0
-14.0
-17.0
-24.0
-23.0
-23.0
-25.0
-25.0
-28.0
-27.0
-29.0
-29.0
-29.0
-29.0
-28.0
-26.0
-24.0
-23.0
-18.0
-10.0
-8.0
-6.0
0.0
1.0
2.0
6.0
7.0
10.0
16.0
20.0
19.0
17.0
18.0
19.0
19.0
20.0
18.0
14.0
13.0
14.0
13.0
12.0
12.0
12.0
12.0
11.0
9.0
9.0
9.0
8.0
9.0
10.0
9.0
7.0
7.0
7.0
8.0
8.0
7.0
7.0
7.0
7.0
7.0
7.0
7.0
5.0
6.0
4.0
4.0
4.0
4.0
3.0
3.0
4.0
4.0
5.0
4.0
3.0
3.0
3.0
1.0
0.0
1.0
3.0
2.0
2.0
4.0
3.0
2.0
0.0
0.0
0.0
0.0
0.0
0.0
0.0
0.0
0.0
0.0
2.0
5.0
7.0
7.0
7.0
0.0
0.0
-2.0
0.0
0.0
-1.0
-2.0
-3.0
-3.0
-3.0
-3.0
-4.0
-2.0
4.0
9.0
11.0
20.0
30.0
30.0
26.0
35.0
60.0
90.0
119.0
142.0
155.0
148.0
94.0
25.0
-6.0
-20.0
-23.0
-27.0
-27.0
-28.0
-26.0
-26.0
-27.0
-30.0
-29.0
-28.0
-26.0
-25.0
-25.0
-24.0
-25.0
-25.0
-25.0
-24.0
-24.0
-28.0
-25.0
-25.0
-27.0
-29.0
-29.0
-27.0
-27.0
-29.0
-29.0
-29.0
-30.0
-30.0
-32.0
-38.0
-41.0
-41.0
-43.0
-45.0
-45.0
-45.0
-45.0
-44.0
-43.0
-41.0
-41.0
-39.0
-30.0
-26.0
-23.0
-19.0
-14.0
-8.0
-7.0
-2.0
0.0
0.0
0.0
4.0
6.0
6.0
4.0
4.0
4.0
4.0
5.0
6.0
5.0
3.0
4.0
4.0
4.0
4.0
4.0
3.0
3.0
4.0
3.0
1.0
0.0
0.0
0.0
0.0
0.0
3.0
2.0
1.0
4.0
3.0
1.0
1.0
3.0
2.0
0.0
0.0
0.0
2.0
3.0
4.0
2.0
2.0
3.0
4.0
4.0
1.0
4.0
6.0
6.0
4.0
4.0
4.0
3.0
3.0
6.0
6.0
4.0
4.0
5.0
6.0
5.0
6.0
7.0
7.0
5.0
4.0
4.0
5.0
6.0
6.0
6.0
8.0
8.0
9.0
14.0
14.0
18.0
9.0
7.0
5.0
4.0
4.0
4.0
4.0
7.0
4.0
3.0
0.0
1.0
3.0
13.0
25.0
26.0
30.0
41.0
43.0
35.0
44.0
71.0
100.0
130.0
153.0
165.0
161.0
112.0
38.0
3.0
-7.0
-12.0
-14.0
-12.0
-15.0
-19.0
-19.0
-22.0
-20.0
-19.0
-18.0
-22.0
-20.0
-19.0
-18.0
-19.0
-14.0
-12.0
-13.0
-19.0
-20.0
-18.0
-18.0
-21.0
-21.0
-17.0
-21.0
-23.0
-22.0
-21.0
-22.0
-25.0
-28.0
-29.0
-32.0
-33.0
-33.0
-33.0
-33.0
-35.0
-38.0
-40.0
-38.0
-35.0
-31.0
-28.0
-27.0
-27.0
-23.0
-19.0
-14.0
-9.0
-7.0
-1.0
0.0
4.0
4.0
7.0
8.0
9.0
6.0
6.0
8.0
8.0
8.0
9.0
4.0
7.0
7.0
4.0
6.0
11.0
8.0
5.0
1.0
1.0
1.0
0.0
0.0
2.0
2.0
1.0
1.0
2.0
2.0
1.0
1.0
0.0
0.0
0.0
0.0
0.0
0.0
0.0
0.0
-2.0
0.0
0.0
0.0
0.0
-1.0
-1.0
0.0
0.0
-2.0
-1.0
0.0
-1.0
-1.0
-1.0
0.0
0.0
-2.0
-3.0
-2.0
0.0
0.0
0.0
0.0
0.0
-1.0
-2.0
-1.0
0.0
-2.0
-2.0
0.0
0.0
-1.0
0.0
0.0
0.0
3.0
7.0
3.0
0.0
0.0
-4.0
-3.0
0.0
1.0
0.0
0.0
-2.0
0.0
-3.0
-3.0
-4.0
3.0
10.0
11.0
22.0
39.0
37.0
27.0
38.0
64.0
92.0
121.0
144.0
159.0
154.0
95.0
24.0
-5.0
-15.0
-22.0
-24.0
-24.0
-25.0
-24.0
-24.0
-24.0
-22.0
-26.0
-31.0
-28.0
-26.0
-26.0
-25.0
-22.0
-22.0
-26.0
-22.0
-22.0
-24.0
-24.0
-24.0
-24.0
-26.0
-20.0
-25.0
-26.0
-25.0
-24.0
-24.0
-30.0
-32.0
-33.0
-32.0
-36.0
-37.0
-35.0
-37.0
-42.0
-45.0
-43.0
-42.0
-39.0
-37.0
-35.0
-33.0
-31.0
-25.0
-21.0
-16.0
-8.0
-4.0
-1.0
0.0
4.0
4.0
4.0
6.0
7.0
6.0
4.0
6.0
11.0
11.0
7.0
9.0
3.0
1.0
4.0
5.0
5.0
1.0
0.0
0.0
2.0
3.0
3.0
3.0
3.0
1.0
0.0
-1.0
0.0
1.0
2.0
2.0
1.0
0.0
-2.0
-1.0
0.0
-1.0
-2.0
-2.0
-2.0
-3.0
-2.0
0.0
0.0
-4.0
-4.0
0.0
-2.0
-5.0
-3.0
-4.0
-3.0
-4.0
-5.0
-2.0
-4.0
-10.0
-8.0
-5.0
-5.0
-5.0
-4.0
0.0
0.0
-8.0
-11.0
-9.0
-5.0
-4.0
-5.0
-7.0
-6.0
-5.0
-6.0
-4.0
1.0
3.0
2.0
0.0
-3.0
-8.0
-8.0
-9.0
-11.0
-11.0
-11.0
-10.0
-8.0
-8.0
-7.0
-5.0
-5.0
-7.0
2.0
7.0
8.0
22.0
27.0
18.0
17.0
46.0
78.0
102.0
128.0
148.0
159.0
117.0
42.0
-3.0
-18.0
-23.0
-27.0
-32.0
-37.0
-33.0
-30.0
-29.0
-26.0
-27.0
-29.0
-31.0
-33.0
-36.0
-37.0
-33.0
-28.0
-26.0
-24.0
-27.0
-31.0
-29.0
-29.0
-30.0
-28.0
-25.0
-26.0
-26.0
-27.0
-33.0
-33.0
-38.0
-36.0
-30.0
-38.0
-42.0
-38.0
-40.0
-43.0
-46.0
-47.0
-44.0
-39.0
-30.0
-28.0
-31.0
-31.0
-25.0
-15.0
-12.0
-16.0
-16.0
-9.0
-2.0
1.0
2.0
4.0
9.0
12.0
11.0
10.0
10.0
11.0
19.0
11.0
9.0
10.0
16.0
14.0
20.0
10.0
2.0
3.0
4.0
6.0
4.0
6.0
4.0
4.0
3.0
6.0
6.0
2.0
0.0
0.0
0.0
0.0
2.0
4.0
3.0
0.0
-4.0
-3.0
0.0
0.0
0.0
1.0
0.0
0.0
2.0
0.0
2.0
0.0
-4.0
0.0
0.0
-2.0
-2.0
0.0
5.0
4.0
0.0
-1.0
0.0
0.0
0.0
1.0
4.0
0.0
0.0
0.0
0.0
0.0
0.0
0.0
0.0
-2.0
-1.0
0.0
0.0
2.0
5.0
4.0
5.0
6.0
4.0
1.0
-1.0
-2.0
-4.0
-6.0
-4.0
0.0
0.0
0.0
0.0
3.0
6.0
13.0
18.0
14.0
23.0
26.0
25.0
23.0
40.0
76.0
105.0
140.0
165.0
161.0
152.0
81.0
22.0
2.0
-4.0
-11.0
-11.0
-17.0
-23.0
-23.0
-22.0
-18.0
-13.0
-13.0
-12.0
-16.0
-21.0
-19.0
-13.0
-13.0
-17.0
-20.0
-21.0
-20.0
-12.0
-6.0
-3.0
-8.0
-9.0
-16.0
-19.0
-11.0
-10.0
-13.0
-23.0
-23.0
-21.0
-21.0
-28.0
-30.0
-27.0
-28.0
-29.0
-27.0
-30.0
-29.0
-30.0
-29.0
-29.0
-24.0
-20.0
-15.0
-12.0
-9.0
-4.0
-2.0
-2.0
3.0
5.0
2.0
4.0
8.0
10.0
17.0
23.0
25.0
25.0
22.0
18.0
16.0
15.0
19.0
15.0
20.0
13.0
9.0
8.0
8.0
11.0
11.0
8.0
13.0
13.0
8.0
8.0
7.0
10.0
15.0
17.0
10.0
14.0
9.0
3.0
3.0
5.0
9.0
9.0
4.0
3.0
6.0
8.0
7.0
6.0
7.0
5.0
5.0
8.0
6.0
4.0
0.0
3.0
8.0
4.0
4.0
6.0
5.0
6.0
2.0
1.0
1.0
5.0
6.0
8.0
4.0
9.0
2.0
0.0
0.0
-1.0
1.0
1.0
-2.0
-2.0
0.0
5.0
12.0
15.0
13.0
5.0
0.0
0.0
2.0
2.0
0.0
-2.0
-1.0
-1.0
-5.0
-6.0
-1.0
1.0
0.0
4.0
8.0
11.0
25.0
32.0
30.0
24.0
35.0
60.0
98.0
129.0
149.0
150.0
144.0
68.0
13.0
-12.0
-25.0
-23.0
-24.0
-28.0
-30.0
-31.0
-31.0
-32.0
-32.0
-32.0
-33.0
-30.0
-27.0
-26.0
-37.0
-43.0
-33.0
-29.0
-32.0
-29.0
-25.0
-24.0
-27.0
-25.0
-20.0
-28.0
-38.0
-43.0
-37.0
-39.0
-36.0
-27.0
-30.0
-38.0
-49.0
-43.0
-40.0
-49.0
-45.0
-42.0
-45.0
-40.0
-47.0
-56.0
-55.0
-47.0
-40.0
-32.0
-27.0
-19.0
-15.0
-14.0
-11.0
-9.0
-6.0
0.0
4.0
6.0
8.0
8.0
5.0
4.0
4.0
5.0
3.0
0.0
2.0
4.0
2.0
3.0
5.0
1.0
0.0
0.0
0.0
0.0
-1.0
2.0
0.0
0.0
0.0
0.0
4.0
0.0
-1.0
0.0
-4.0
-4.0
-4.0
-2.0
1.0
-1.0
0.0
-1.0
0.0
1.0
0.0
-1.0
-2.0
0.0
0.0
-1.0
-3.0
-5.0
-4.0
2.0
3.0
0.0
-1.0
-1.0
0.0
0.0
-6.0
-1.0
-2.0
0.0
-4.0
-7.0
-2.0
0.0
1.0
4.0
0.0
-2.0
-2.0
-3.0
-1.0
-3.0
0.0
5.0
8.0
8.0
9.0
7.0
1.0
-4.0
-7.0
-6.0
-6.0
-4.0
-2.0
-1.0
0.0
1.0
0.0
-1.0
6.0
17.0
25.0
31.0
30.0
20.0
21.0
38.0
66.0
96.0
122.0
144.0
157.0
151.0
72.0
11.0
-12.0
-24.0
-24.0
-25.0
-31.0
-26.0
-24.0
-25.0
-26.0
-27.0
-28.0
-29.0
-26.0
-25.0
-21.0
-21.0
-25.0
-23.0
-22.0
-24.0
-27.0
-27.0
-30.0
-26.0
-20.0
-21.0
-24.0
-27.0
-26.0
-24.0
-23.0
-25.0
-29.0
-29.0
-26.0
-32.0
-34.0
-32.0
-33.0
-36.0
-34.0
-33.0
-35.0
-40.0
-28.0
-27.0
-26.0
-22.0
-14.0
-19.0
-20.0
-9.0
-2.0
-7.0
0.0
5.0
1.0
1.0
4.0
9.0
5.0
3.0
12.0
19.0
17.0
9.0
5.0
6.0
13.0
16.0
12.0
11.0
11.0
8.0
6.0
5.0
4.0
9.0
5.0
0.0
-1.0
2.0
4.0
4.0
5.0
3.0
2.0
3.0
5.0
6.0
6.0
6.0
0.0
1.0
0.0
3.0
3.0
0.0
0.0
1.0
2.0
6.0
6.0
1.0
0.0
0.0
3.0
3.0
0.0
-1.0
0.0
0.0
0.0
0.0
1.0
4.0
4.0
1.0
3.0
8.0
3.0
0.0
-5.0
-3.0
-2.0
-2.0
1.0
5.0
2.0
2.0
12.0
7.0
6.0
4.0
4.0
-1.0
-2.0
2.0
1.0
0.0
0.0
2.0
3.0
1.0
1.0
0.0
2.0
11.0
16.0
19.0
26.0
30.0
27.0
29.0
44.0
70.0
102.0
134.0
151.0
158.0
145.0
74.0
13.0
-6.0
-17.0
-25.0
-21.0
-20.0
-27.0
-31.0
-30.0
-23.0
-23.0
-24.0
-23.0
-21.0
-26.0
-28.0
-29.0
-27.0
-24.0
-17.0
-20.0
-22.0
-21.0
-21.0
-23.0
-28.0
-32.0
-30.0
-24.0
-23.0
-25.0
-22.0
-22.0
-24.0
-27.0
-28.0
-26.0
-32.0
-41.0
-39.0
-32.0
-32.0
-33.0
-27.0
-22.0
-21.0
-27.0
-33.0
-34.0
-30.0
-24.0
-19.0
-5.0
2.0
3.0
5.0
6.0
5.0
8.0
12.0
11.0
7.0
15.0
18.0
20.0
17.0
13.0
18.0
19.0
14.0
6.0
2.0
5.0
7.0
7.0
7.0
5.0
1.0
5.0
10.0
9.0
8.0
8.0
7.0
6.0
8.0
6.0
4.0
6.0
5.0
1.0
6.0
11.0
5.0
4.0
7.0
5.0
2.0
4.0
5.0
0.0
0.0
7.0
9.0
8.0
2.0
-3.0
0.0
5.0
4.0
2.0
5.0
4.0
4.0
3.0
0.0
-2.0
0.0
4.0
2.0
0.0
2.0
2.0
-3.0
-4.0
0.0
1.0
0.0
0.0
0.0
0.0
1.0
3.0
4.0
8.0
4.0
1.0
1.0
6.0
1.0
-10.0
-6.0
-10.0
-1.0
4.0
0.0
4.0
-2.0
-4.0
2.0
15.0
9.0
4.0
21.0
29.0
26.0
31.0
49.0
73.0
103.0
136.0
158.0
165.0
133.0
66.0
9.0
-17.0
-23.0
-21.0
-19.0
-24.0
-22.0
-25.0
-28.0
-22.0
-15.0
-23.0
-20.0
-11.0
-12.0
-29.0
-31.0
-25.0
-24.0
-24.0
-18.0
-12.0
-19.0
-23.0
-23.0
-22.0
-23.0
-23.0
-22.0
-14.0
-12.0
-20.0
-25.0
-31.0
-40.0
-38.0
-36.0
-32.0
-30.0
-32.0
-32.0
-33.0
-30.0
-31.0
-34.0
-29.0
-17.0
-13.0
-22.0
-15.0
-9.0
-16.0
-18.0
-8.0
0.0
4.0
5.0
7.0
10.0
13.0
13.0
17.0
18.0
13.0
21.0
20.0
17.0
19.0
14.0
25.0
17.0
6.0
6.0
9.0
8.0
5.0
5.0
7.0
7.0
6.0
4.0
7.0
8.0
3.0
1.0
1.0
3.0
6.0
2.0
0.0
2.0
3.0
4.0
2.0
4.0
5.0
1.0
0.0
0.0
4.0
10.0
10.0
1.0
3.0
3.0
0.0
0.0
-1.0
-1.0
0.0
2.0
3.0
8.0
9.0
2.0
-1.0
0.0
2.0
7.0
7.0
3.0
1.0
3.0
2.0
0.0
1.0
1.0
0.0
0.0
1.0
3.0
4.0
8.0
11.0
10.0
11.0
7.0
0.0
0.0
3.0
9.0
5.0
0.0
-2.0
-4.0
-2.0
0.0
0.0
3.0
5.0
13.0
22.0
29.0
36.0
29.0
30.0
32.0
45.0
70.0
99.0
131.0
158.0
166.0
129.0
62.0
11.0
-8.0
-10.0
-15.0
-22.0
-24.0
-23.0
-23.0
-22.0
-25.0
-28.0
-23.0
-23.0
-21.0
-24.0
-29.0
-24.0
-24.0
-24.0
-25.0
-22.0
-20.0
-21.0
-13.0
-21.0
-23.0
-24.0
-24.0
-24.0
-26.0
-28.0
-30.0
-31.0
-26.0
-32.0
-32.0
-29.0
-31.0
-29.0
-31.0
-41.0
-46.0
-44.0
-43.0
-35.0
-26.0
-33.0
-41.0
-33.0
-24.0
-16.0
-8.0
-2.0
0.0
0.0
2.0
7.0
1.0
1.0
4.0
7.0
8.0
11.0
7.0
9.0
7.0
7.0
1.0
6.0
9.0
4.0
0.0
2.0
5.0
7.0
8.0
4.0
3.0
4.0
3.0
1.0
3.0
5.0
1.0
0.0
0.0
0.0
2.0
0.0
-1.0
1.0
2.0
0.0
0.0
-1.0
-2.0
-4.0
-2.0
1.0
3.0
0.0
0.0
0.0
0.0
0.0
-2.0
-3.0
0.0
0.0
0.0
0.0
4.0
0.0
-2.0
-2.0
0.0
-1.0
4.0
2.0
-3.0
-7.0
-3.0
3.0
5.0
1.0
0.0
-1.0
6.0
12.0
10.0
3.0
0.0
0.0
-1.0
-3.0
-1.0
-1.0
-2.0
-1.0
-2.0
-3.0
0.0
4.0
0.0
8.0
19.0
21.0
27.0
40.0
29.0
24.0
35.0
72.0
108.0
132.0
150.0
163.0
156.0
87.0
24.0
-9.0
-21.0
-26.0
-24.0
-26.0
-17.0
-10.0
-19.0
-25.0
-22.0
-22.0
-21.0
-16.0
-20.0
-29.0
-31.0
-25.0
-22.0
-24.0
-22.0
-17.0
-10.0
-10.0
-19.0
-24.0
-24.0
-15.0
-14.0
-26.0
-31.0
-29.0
-28.0
-25.0
-23.0
-29.0
-29.0
-27.0
-23.0
-30.0
-41.0
-37.0
-31.0
-38.0
-42.0
-39.0
-29.0
-23.0
-15.0
-15.0
-15.0
-7.0
-6.0
-6.0
-1.0
5.0
6.0
5.0
5.0
8.0
11.0
13.0
19.0
19.0
9.0
8.0
9.0
9.0
8.0
4.0
3.0
4.0
6.0
0.0
0.0
8.0
7.0
5.0
4.0
4.0
6.0
4.0
1.0
1.0
4.0
0.0
-2.0
0.0
-1.0
1.0
2.0
4.0
0.0
2.0
2.0
0.0
0.0
1.0
2.0
0.0
0.0
2.0
2.0
-1.0
-2.0
0.0
2.0
2.0
-1.0
-1.0
0.0
5.0
3.0
0.0
3.0
2.0
-1.0
-4.0
-3.0
0.0
-4.0
-2.0
0.0
3.0
2.0
2.0
1.0
0.0
0.0
0.0
6.0
0.0
3.0
1.0
-3.0
2.0
7.0
4.0
0.0
-1.0
-3.0
-2.0
2.0
4.0
0.0
-3.0
-2.0
-3.0
-5.0
-2.0
2.0
13.0
21.0
21.0
26.0
31.0
20.0
28.0
56.0
89.0
110.0
137.0
152.0
165.0
124.0
39.0
0.0
-20.0
-22.0
-20.0
-24.0
-26.0
-25.0
-25.0
-25.0
-30.0
-31.0
-27.0
-24.0
-24.0
-21.0
-18.0
-20.0
-23.0
-25.0
-25.0
-24.0
-25.0
-27.0
-30.0
-29.0
-24.0
-13.0
-15.0
-29.0
-37.0
-32.0
-27.0
-23.0
-24.0
-25.0
-33.0
-35.0
-37.0
-25.0
-39.0
-44.0
-39.0
-42.0
-35.0
-29.0
-27.0
-28.0
-24.0
-15.0
-15.0
-16.0
-16.0
-12.0
-1.0
1.0
1.0
1.0
6.0
9.0
6.0
6.0
14.0
15.0
15.0
20.0
16.0
6.0
5.0
10.0
15.0
10.0
4.0
2.0
5.0
10.0
12.0
6.0
1.0
1.0
7.0
2.0
5.0
4.0
4.0
4.0
5.0
4.0
3.0
0.0
-1.0
-1.0
1.0
0.0
3.0
4.0
3.0
-1.0
-2.0
0.0
0.0
0.0
-1.0
0.0
3.0
5.0
4.0
2.0
0.0
-1.0
0.0
0.0
0.0
0.0
0.0
0.0
3.0
0.0
0.0
-1.0
3.0
7.0
2.0
-6.0
-7.0
3.0
4.0
0.0
-2.0
1.0
0.0
-1.0
5.0
12.0
9.0
3.0
5.0
1.0
-2.0
0.0
0.0
0.0
0.0
-1.0
-2.0
2.0
7.0
3.0
-3.0
-6.0
-3.0
3.0
9.0
12.0
17.0
25.0
28.0
33.0
44.0
65.0
95.0
120.0
145.0
153.0
159.0
95.0
24.0
-2.0
-5.0
-20.0
-22.0
-24.0
-28.0
-27.0
-15.0
-19.0
-24.0
-24.0
-16.0
-19.0
-18.0
-21.0
-25.0
-27.0
-22.0
-14.0
-14.0
-16.0
-16.0
-18.0
-15.0
-16.0
-25.0
-26.0
-24.0
-22.0
-22.0
-23.0
-23.0
-21.0
-24.0
-34.0
-40.0
-37.0
-31.0
-29.0
-32.0
-36.0
-33.0
-34.0
-33.0
-29.0
-29.0
-29.0
-26.0
-22.0
-12.0
-10.0
-5.0
1.0
1.0
2.0
7.0
1.0
-1.0
8.0
18.0
18.0
20.0
21.0
16.0
17.0
14.0
9.0
15.0
15.0
6.0
6.0
8.0
4.0
5.0
7.0
5.0
2.0
4.0
1.0
6.0
11.0
6.0
0.0
-1.0
0.0
2.0
3.0
5.0
5.0
1.0
0.0
2.0
3.0
2.0
7.0
3.0
0.0
0.0
-1.0
-2.0
0.0
0.0
3.0
6.0
7.0
4.0
2.0
4.0
2.0
-2.0
-1.0
0.0
1.0
4.0
1.0
0.0
2.0
4.0
0.0
-1.0
0.0
-1.0
-2.0
2.0
3.0
1.0
1.0
3.0
6.0
0.0
0.0
6.0
7.0
6.0
5.0
3.0
7.0
1.0
0.0
3.0
0.0
-2.0
0.0
-1.0
-1.0
0.0
-1.0
-4.0
-2.0
5.0
13.0
20.0
19.0
19.0
24.0
23.0
27.0
42.0
62.0
87.0
120.0
148.0
163.0
156.0
94.0
26.0
-2.0
-7.0
-6.0
-12.0
-21.0
-29.0
-40.0
-27.0
-22.0
-28.0
-25.0
-21.0
-21.0
-22.0
-18.0
-13.0
-27.0
-29.0
-27.0
-25.0
-25.0
-22.0
-19.0
-21.0
-24.0
-22.0
-21.0
-25.0
-29.0
-27.0
-23.0
-23.0
-29.0
-29.0
-23.0
-23.0
-27.0
-32.0
-35.0
-43.0
-44.0
-47.0
-42.0
-34.0
-25.0
-25.0
-29.0
-28.0
-26.0
-15.0
-3.0
-7.0
-8.0
-5.0
0.0
2.0
4.0
7.0
18.0
11.0
9.0
12.0
16.0
14.0
12.0
9.0
7.0
4.0
1.0
5.0
13.0
14.0
7.0
4.0
5.0
4.0
0.0
0.0
3.0
3.0
0.0
0.0
3.0
6.0
9.0
4.0
0.0
0.0
0.0
1.0
1.0
-7.0
0.0
0.0
3.0
5.0
3.0
-1.0
0.0
5.0
2.0
0.0
2.0
1.0
-3.0
2.0
7.0
2.0
-2.0
-1.0
0.0
2.0
4.0
1.0
0.0
1.0
0.0
-1.0
0.0
-1.0
0.0
0.0
3.0
4.0
4.0
-4.0
-3.0
-1.0
-1.0
-2.0
3.0
2.0
-1.0
1.0
0.0
2.0
2.0
2.0
2.0
2.0
1.0
0.0
1.0
1.0
1.0
0.0
0.0
0.0
0.0
0.0
0.0
0.0
0.0
3.0
20.0
48.0
58.0
27.0
-8.0
-16.0
-18.0
-25.0
-37.0
-51.0
-56.0
-48.0
-27.0
-9.0
-1.0
0.0
0.0
2.0
2.0
2.0
2.0
2.0
2.0
2.0
2.0
2.0
2.0
2.0
2.0
2.0
2.0
2.0
2.0
2.0
2.0
2.0
2.0
3.0
4.0
2.0
2.0
3.0
3.0
2.0
2.0
3.0
2.0
1.0
0.0
0.0
0.0
0.0
0.0
-1.0
-2.0
-2.0
-5.0
-6.0
-6.0
-6.0
-6.0
-7.0
-7.0
-6.0
-6.0
-6.0
-5.0
-4.0
-1.0
0.0
0.0
0.0
0.0
1.0
2.0
3.0
3.0
5.0
4.0
4.0
4.0
10.0
10.0
9.0
8.0
4.0
1.0
3.0
4.0
3.0
6.0
8.0
3.0
0.0
0.0
2.0
2.0
1.0
0.0
1.0
3.0
0.0
4.0
4.0
1.0
0.0
1.0
-1.0
1.0
4.0
1.0
0.0
0.0
1.0
1.0
1.0
4.0
0.0
-2.0
-1.0
0.0
3.0
2.0
2.0
0.0
0.0
-1.0
-1.0
-2.0
-1.0
0.0
0.0
3.0
3.0
0.0
-1.0
-2.0
-1.0
-5.0
-8.0
-6.0
-1.0
2.0
2.0
0.0
1.0
0.0
0.0
3.0
3.0
2.0
0.0
2.0
0.0
0.0
0.0
-1.0
-2.0
-5.0
-2.0
-1.0
-4.0
-3.0
-2.0
1.0
9.0
11.0
14.0
23.0
29.0
30.0
42.0
64.0
87.0
114.0
139.0
153.0
153.0
114.0
41.0
-2.0
-11.0
-16.0
-20.0
-23.0
-20.0
-23.0
-21.0
-23.0
-24.0
-25.0
-23.0
-23.0
-23.0
-23.0
-23.0
-18.0
-19.0
-22.0
-20.0
-16.0
-20.0
-24.0
-19.0
-21.0
-25.0
-24.0
-21.0
-22.0
-21.0
-22.0
-24.0
-24.0
-22.0
-24.0
-30.0
-33.0
-31.0
-36.0
-40.0
-39.0
-39.0
-37.0
-32.0
-31.0
-32.0
-29.0
-19.0
-12.0
-20.0
-19.0
-14.0
-7.0
0.0
0.0
0.0
4.0
7.0
7.0
9.0
10.0
11.0
13.0
12.0
8.0
12.0
17.0
12.0
11.0
8.0
7.0
8.0
9.0
7.0
5.0
8.0
11.0
9.0
10.0
11.0
5.0
0.0
0.0
-1.0
0.0
2.0
2.0
3.0
1.0
3.0
0.0
0.0
0.0
2.0
2.0
5.0
0.0
-2.0
0.0
0.0
0.0
0.0
1.0
1.0
2.0
0.0
-1.0
0.0
0.0
-3.0
-3.0
0.0
0.0
3.0
1.0
0.0
0.0
0.0
0.0
0.0
0.0
0.0
0.0
-2.0
-4.0
0.0
2.0
0.0
0.0
-2.0
0.0
0.0
-3.0
-2.0
6.0
4.0
0.0
4.0
3.0
1.0
0.0
0.0
-1.0
-2.0
-2.0
2.0
-4.0
-3.0
-3.0
-5.0
-1.0
1.0
2.0
16.0
15.0
16.0
22.0
22.0
18.0
31.0
62.0
92.0
117.0
136.0
149.0
156.0
119.0
47.0
4.0
-9.0
-16.0
-22.0
-23.0
-24.0
-24.0
-24.0
-24.0
-24.0
-21.0
-21.0
-28.0
-23.0
-22.0
-19.0
-16.0
-21.0
-22.0
-23.0
-23.0
-7.0
-15.0
-23.0
-25.0
-22.0
-17.0
-16.0
-24.0
-24.0
-20.0
-23.0
-23.0
-22.0
-23.0
-28.0
-30.0
-30.0
-31.0
-35.0
-37.0
-33.0
-31.0
-30.0
-27.0
-20.0
-14.0
-22.0
-24.0
-20.0
-10.0
-5.0
-8.0
0.0
0.0
7.0
7.0
10.0
8.0
8.0
14.0
26.0
24.0
23.0
22.0
19.0
19.0
13.0
11.0
11.0
14.0
7.0
5.0
5.0
4.0
3.0
4.0
6.0
8.0
6.0
3.0
1.0
1.0
4.0
4.0
5.0
7.0
3.0
1.0
1.0
5.0
8.0
8.0
6.0
1.0
0.0
1.0
5.0
1.0
0.0
0.0
4.0
4.0
2.0
2.0
3.0
3.0
3.0
6.0
2.0
3.0
9.0
4.0
2.0
0.0
-1.0
0.0
2.0
3.0
6.0
5.0
0.0
0.0
1.0
1.0
0.0
1.0
3.0
5.0
5.0
1.0
0.0
0.0
3.0
6.0
9.0
13.0
14.0
3.0
2.0
2.0
3.0
1.0
2.0
6.0
0.0
-3.0
-2.0
-2.0
0.0
5.0
13.0
20.0
13.0
19.0
29.0
32.0
30.0
44.0
75.0
106.0
132.0
148.0
162.0
146.0
81.0
22.0
-1.0
-13.0
-22.0
-23.0
-21.0
-21.0
-21.0
-20.0
-21.0
-24.0
-21.0
-20.0
-24.0
-23.0
-21.0
-17.0
-25.0
-26.0
-22.0
-21.0
-21.0
-20.0
-20.0
-21.0
-16.0
-22.0
-23.0
-24.0
-24.0
-22.0
-22.0
-23.0
-23.0
-24.0
-27.0
-29.0
-29.0
-30.0
-32.0
-31.0
-30.0
-34.0
-39.0
-41.0
-39.0
-31.0
-25.0
-25.0
-22.0
-16.0
-10.0
-4.0
-5.0
-4.0
0.0
3.0
3.0
6.0
11.0
16.0
12.0
13.0
12.0
13.0
13.0
8.0
10.0
10.0
10.0
17.0
8.0
7.0
7.0
8.0
7.0
7.0
9.0
8.0
4.0
3.0
6.0
8.0
9.0
8.0
7.0
7.0
8.0
6.0
6.0
8.0
8.0
11.0
14.0
6.0
3.0
3.0
5.0
6.0
4.0
6.0
7.0
8.0
7.0
4.0
4.0
4.0
9.0
8.0
6.0
4.0
4.0
4.0
4.0
4.0
8.0
6.0
4.0
5.0
6.0
5.0
6.0
9.0
7.0
3.0
1.0
3.0
7.0
5.0
3.0
5.0
5.0
6.0
9.0
10.0
14.0
15.0
8.0
5.0
4.0
5.0
7.0
7.0
5.0
6.0
2.0
0.0
1.0
1.0
4.0
5.0
21.0
24.0
24.0
39.0
49.0
36.0
34.0
54.0
88.0
115.0
140.0
156.0
170.0
139.0
72.0
20.0
1.0
-3.0
-10.0
-15.0
-17.0
-16.0
-14.0
-11.0
-10.0
-16.0
-18.0
-17.0
-14.0
-14.0
-10.0
-8.0
-11.0
-12.0
-11.0
-10.0
-14.0
-14.0
-15.0
-8.0
-8.0
-8.0
-11.0
-11.0
-17.0
-18.0
-23.0
-23.0
-20.0
-23.0
-24.0
-24.0
-24.0
-24.0
-27.0
-31.0
-32.0
-28.0
-25.0
-23.0
-25.0
-25.0
-24.0
-23.0
-19.0
-12.0
-6.0
-2.0
0.0
2.0
5.0
5.0
10.0
18.0
21.0
15.0
8.0
12.0
17.0
20.0
14.0
18.0
12.0
12.0
12.0
12.0
13.0
11.0
11.0
12.0
9.0
7.0
8.0
10.0
8.0
10.0
11.0
7.0
7.0
7.0
7.0
6.0
5.0
4.0
4.0
7.0
10.0
8.0
5.0
5.0
6.0
7.0
6.0
8.0
10.0
6.0
4.0
4.0
6.0
7.0
6.0
1.0
3.0
5.0
7.0
6.0
6.0
6.0
9.0
6.0
5.0
7.0
7.0
4.0
7.0
6.0
3.0
5.0
6.0
7.0
7.0
7.0
8.0
9.0
7.0
4.0
4.0
8.0
11.0
16.0
21.0
17.0
11.0
6.0
3.0
3.0
4.0
5.0
4.0
3.0
1.0
2.0
4.0
4.0
4.0
8.0
17.0
25.0
25.0
42.0
42.0
35.0
37.0
62.0
90.0
118.0
143.0
158.0
170.0
130.0
55.0
9.0
-4.0
-12.0
-18.0
-20.0
-17.0
-19.0
-20.0
-19.0
-20.0
-19.0
-18.0
-19.0
-21.0
-21.0
-20.0
-20.0
-19.0
-18.0
-18.0
-16.0
-16.0
-20.0
-20.0
-19.0
-15.0
-14.0
-21.0
-21.0
-20.0
-22.0
-24.0
-24.0
-24.0
-25.0
-26.0
-28.0
-30.0
-32.0
-33.0
-34.0
-36.0
-40.0
-41.0
-36.0
-33.0
-32.0
-28.0
-23.0
-20.0
-20.0
-15.0
-8.0
-4.0
-1.0
0.0
2.0
4.0
5.0
7.0
8.0
10.0
10.0
10.0
10.0
13.0
11.0
10.0
7.0
4.0
5.0
6.0
4.0
4.0
5.0
7.0
7.0
7.0
7.0
4.0
4.0
6.0
4.0
4.0
5.0
6.0
2.0
1.0
0.0
1.0
3.0
3.0
2.0
1.0
2.0
1.0
0.0
2.0
3.0
1.0
0.0
0.0
0.0
0.0
0.0
2.0
2.0
3.0
3.0
1.0
1.0
5.0
0.0
0.0
-1.0
-1.0
0.0
0.0
1.0
1.0
0.0
0.0
1.0
2.0
0.0
-1.0
-1.0
-1.0
0.0
1.0
2.0
1.0
2.0
4.0
7.0
8.0
4.0
0.0
-2.0
-1.0
-1.0
-2.0
0.0
0.0
0.0
0.0
0.0
-1.0
0.0
5.0
14.0
12.0
16.0
30.0
37.0
34.0
39.0
64.0
94.0
131.0
151.0
155.0
167.0
107.0
31.0
0.0
-11.0
-15.0
-16.0
-19.0
-22.0
-22.0
-16.0
-16.0
-18.0
-21.0
-25.0
-24.0
-22.0
-21.0
-20.0
-20.0
-21.0
-21.0
-20.0
-21.0
-19.0
-17.0
-16.0
-18.0
-19.0
-22.0
-23.0
-20.0
-21.0
-23.0
-23.0
-18.0
-20.0
-23.0
-27.0
-29.0
-30.0
-31.0
-32.0
-33.0
-36.0
-38.0
-32.0
-32.0
-31.0
-27.0
-23.0
-22.0
-21.0
-19.0
-14.0
-8.0
-3.0
0.0
1.0
4.0
8.0
10.0
10.0
15.0
19.0
19.0
19.0
18.0
12.0
10.0
9.0
9.0
10.0
9.0
8.0
8.0
9.0
9.0
6.0
8.0
9.0
5.0
5.0
4.0
5.0
4.0
1.0
1.0
7.0
6.0
4.0
3.0
3.0
4.0
6.0
7.0
7.0
4.0
2.0
1.0
3.0
4.0
4.0
4.0
2.0
2.0
4.0
3.0
2.0
4.0
5.0
3.0
1.0
0.0
1.0
3.0
2.0
2.0
4.0
4.0
4.0
4.0
5.0
6.0
5.0
0.0
0.0
2.0
2.0
2.0
3.0
4.0
1.0
1.0
0.0
2.0
4.0
6.0
8.0
12.0
12.0
7.0
4.0
2.0
0.0
0.0
1.0
2.0
2.0
2.0
0.0
0.0
0.0
0.0
0.0
7.0
18.0
22.0
31.0
44.0
41.0
33.0
45.0
72.0
104.0
134.0
155.0
161.0
166.0
81.0
18.0
-2.0
-9.0
-15.0
-21.0
-22.0
-20.0
-18.0
-16.0
-16.0
-20.0
-23.0
-23.0
-22.0
-22.0
-22.0
-19.0
-20.0
-20.0
-19.0
-18.0
-20.0
-19.0
-16.0
-16.0
-19.0
-22.0
-22.0
-21.0
-20.0
-23.0
-24.0
-25.0
-23.0
-23.0
-27.0
-29.0
-29.0
-32.0
-34.0
-32.0
-32.0
-36.0
-38.0
-35.0
-33.0
-31.0
-29.0
-27.0
-24.0
-20.0
-18.0
-12.0
-5.0
0.0
0.0
1.0
3.0
5.0
6.0
8.0
10.0
11.0
11.0
11.0
11.0
11.0
12.0
12.0
10.0
10.0
8.0
9.0
8.0
9.0
9.0
7.0
8.0
7.0
5.0
5.0
6.0
6.0
5.0
5.0
4.0
4.0
4.0
4.0
4.0
4.0
5.0
5.0
6.0
4.0
4.0
5.0
6.0
4.0
3.0
3.0
3.0
4.0
4.0
4.0
4.0
4.0
4.0
5.0
6.0
6.0
3.0
3.0
4.0
5.0
4.0
0.0
0.0
1.0
0.0
2.0
2.0
2.0
3.0
0.0
2.0
2.0
3.0
2.0
1.0
2.0
3.0
2.0
2.0
2.0
7.0
9.0
10.0
8.0
5.0
1.0
0.0
2.0
1.0
1.0
0.0
0.0
0.0
0.0
0.0
0.0
1.0
4.0
13.0
19.0
27.0
38.0
41.0
33.0
38.0
62.0
94.0
122.0
145.0
157.0
164.0
113.0
32.0
-3.0
-12.0
-15.0
-19.0
-23.0
-23.0
-23.0
-23.0
-22.0
-22.0
-22.0
-20.0
-20.0
-21.0
-24.0
-24.0
-20.0
-20.0
-22.0
-21.0
-18.0
-18.0
-21.0
-21.0
-20.0
-21.0
-22.0
-22.0
-22.0
-23.0
-21.0
-23.0
-24.0
-27.0
-27.0
-29.0
-29.0
-33.0
-33.0
-35.0
-37.0
-40.0
-39.0
-39.0
-35.0
-33.0
-32.0
-31.0
-23.0
-23.0
-18.0
-11.0
-8.0
-6.0
-3.0
0.0
0.0
3.0
5.0
6.0
8.0
10.0
10.0
11.0
11.0
9.0
7.0
7.0
8.0
8.0
6.0
5.0
6.0
7.0
4.0
3.0
3.0
1.0
1.0
4.0
6.0
7.0
1.0
1.0
3.0
2.0
2.0
3.0
3.0
3.0
4.0
3.0
3.0
3.0
3.0
3.0
2.0
2.0
1.0
2.0
2.0
1.0
1.0
2.0
3.0
1.0
0.0
0.0
0.0
1.0
1.0
1.0
1.0
0.0
0.0
1.0
0.0
0.0
0.0
0.0
0.0
-1.0
1.0
1.0
0.0
0.0
2.0
2.0
2.0
2.0
-1.0
-2.0
0.0
2.0
0.0
0.0
4.0
5.0
7.0
11.0
7.0
1.0
-1.0
-2.0
-3.0
-2.0
-1.0
-2.0
-3.0
-3.0
-4.0
-4.0
-2.0
1.0
10.0
15.0
17.0
27.0
28.0
26.0
32.0
53.0
83.0
111.0
137.0
149.0
154.0
119.0
40.0
-1.0
-17.0
-24.0
-24.0
-28.0
-29.0
-29.0
-26.0
-26.0
-26.0
-26.0
-27.0
-28.0
-29.0
-31.0
-32.0
-29.0
-29.0
-27.0
-24.0
-24.0
-24.0
-26.0
-29.0
-29.0
-29.0
-29.0
-29.0
-29.0
-29.0
-29.0
-30.0
-33.0
-32.0
-31.0
-35.0
-41.0
-41.0
-42.0
-45.0
-46.0
-45.0
-45.0
-47.0
-44.0
-45.0
-41.0
-39.0
-32.0
-29.0
-29.0
-24.0
-19.0
-14.0
-9.0
-6.0
-3.0
0.0
0.0
0.0
0.0
1.0
2.0
3.0
3.0
3.0
1.0
1.0
3.0
3.0
3.0
3.0
2.0
1.0
2.0
0.0
0.0
0.0
0.0
0.0
0.0
0.0
0.0
0.0
-1.0
-1.0
0.0
0.0
0.0
-1.0
-2.0
-1.0
-2.0
0.0
0.0
-2.0
-3.0
-1.0
0.0
0.0
0.0
-2.0
-3.0
-2.0
-2.0
0.0
-1.0
-1.0
0.0
0.0
0.0
0.0
-1.0
-2.0
-3.0
-2.0
0.0
0.0
0.0
0.0
0.0
0.0
0.0
0.0
0.0
1.0
1.0
0.0
0.0
0.0
0.0
0.0
0.0
0.0
2.0
4.0
7.0
11.0
11.0
8.0
2.0
0.0
0.0
0.0
0.0
0.0
0.0
2.0
4.0
2.0
2.0
3.0
6.0
15.0
21.0
22.0
31.0
42.0
37.0
34.0
54.0
88.0
120.0
145.0
159.0
165.0
143.0
61.0
10.0
-4.0
-8.0
-12.0
-14.0
-17.0
-18.0
-19.0
-20.0
-20.0
-13.0
-15.0
-19.0
-20.0
-15.0
-11.0
-11.0
-17.0
-18.0
-16.0
-13.0
-18.0
-21.0
-19.0
-18.0
-19.0
-20.0
-20.0
-18.0
-15.0
-16.0
-20.0
-20.0
-20.0
-23.0
-26.0
-25.0
-29.0
-32.0
-32.0
-29.0
-34.0
-34.0
-32.0
-31.0
-31.0
-30.0
-26.0
-24.0
-21.0
-18.0
-19.0
-11.0
-5.0
-2.0
1.0
2.0
6.0
7.0
8.0
8.0
14.0
18.0
20.0
21.0
14.0
9.0
10.0
11.0
9.0
8.0
7.0
6.0
5.0
8.0
10.0
10.0
6.0
5.0
5.0
5.0
6.0
3.0
2.0
4.0
3.0
3.0
3.0
7.0
6.0
1.0
1.0
1.0
2.0
4.0
6.0
7.0
2.0
0.0
2.0
3.0
2.0
0.0
0.0
1.0
3.0
3.0
1.0
2.0
5.0
4.0
0.0
0.0
0.0
0.0
0.0
0.0
2.0
3.0
4.0
3.0
3.0
2.0
2.0
2.0
3.0
4.0
0.0
1.0
2.0
0.0
0.0
4.0
4.0
6.0
7.0
8.0
16.0
9.0
2.0
1.0
1.0
1.0
0.0
0.0
0.0
1.0
3.0
1.0
-1.0
-2.0
1.0
12.0
19.0
23.0
33.0
40.0
36.0
35.0
48.0
71.0
102.0
134.0
153.0
159.0
146.0
71.0
13.0
-4.0
-14.0
-20.0
-21.0
-21.0
-20.0
-24.0
-25.0
-25.0
-24.0
-21.0
-23.0
-24.0
-21.0
-18.0
-19.0
-22.0
-21.0
-21.0
-21.0
-23.0
-22.0
-23.0
-25.0
-24.0
-23.0
-21.0
-20.0
-21.0
-23.0
-25.0
-22.0
-20.0
-26.0
-33.0
-36.0
-35.0
-37.0
-42.0
-39.0
-33.0
-37.0
-40.0
-38.0
-34.0
-32.0
-24.0
-23.0
-30.0
-24.0
-18.0
-8.0
-8.0
-6.0
0.0
1.0
2.0
5.0
10.0
10.0
10.0
11.0
10.0
10.0
7.0
6.0
7.0
8.0
9.0
9.0
6.0
6.0
6.0
5.0
4.0
4.0
6.0
5.0
2.0
1.0
1.0
3.0
3.0
4.0
4.0
4.0
2.0
2.0
3.0
3.0
1.0
1.0
1.0
1.0
1.0
2.0
3.0
4.0
4.0
0.0
-2.0
0.0
2.0
0.0
1.0
2.0
0.0
0.0
2.0
1.0
0.0
0.0
0.0
0.0
0.0
1.0
0.0
0.0
1.0
1.0
2.0
1.0
1.0
1.0
0.0
0.0
1.0
-2.0
-3.0
-1.0
1.0
1.0
2.0
4.0
5.0
8.0
10.0
9.0
3.0
-1.0
-4.0
-5.0
-3.0
-1.0
0.0
0.0
-1.0
-2.0
-3.0
-2.0
3.0
9.0
12.0
18.0
31.0
36.0
30.0
31.0
52.0
82.0
111.0
137.0
153.0
158.0
133.0
52.0
1.0
-8.0
-16.0
-22.0
-24.0
-23.0
-24.0
-25.0
-24.0
-24.0
-25.0
-25.0
-22.0
-22.0
-22.0
-23.0
-23.0
-20.0
-22.0
-23.0
-18.0
-22.0
-23.0
-22.0
-22.0
-23.0
-23.0
-23.0
-23.0
-24.0
-24.0
-22.0
-23.0
-24.0
-26.0
-30.0
-32.0
-30.0
-29.0
-30.0
-30.0
-34.0
-39.0
-41.0
-42.0
-38.0
-33.0
-32.0
-28.0
-23.0
-20.0
-17.0
-7.0
-5.0
-1.0
0.0
1.0
1.0
1.0
7.0
14.0
10.0
10.0
9.0
10.0
10.0
10.0
9.0
14.0
12.0
7.0
4.0
4.0
4.0
4.0
5.0
6.0
4.0
5.0
5.0
3.0
5.0
8.0
4.0
1.0
1.0
0.0
0.0
1.0
1.0
2.0
0.0
0.0
1.0
3.0
3.0
4.0
5.0
5.0
1.0
0.0
0.0
0.0
0.0
0.0
0.0
1.0
1.0
0.0
0.0
0.0
0.0
0.0
-1.0
0.0
0.0
1.0
0.0
0.0
-1.0
-1.0
0.0
-1.0
-2.0
-1.0
0.0
0.0
-2.0
0.0
-1.0
-3.0
-2.0
-1.0
0.0
0.0
7.0
6.0
1.0
-1.0
-5.0
-8.0
-5.0
-3.0
-2.0
-2.0
-3.0
-3.0
-3.0
-7.0
-6.0
-2.0
7.0
13.0
10.0
15.0
24.0
24.0
23.0
39.0
67.0
96.0
125.0
144.0
154.0
142.0
83.0
20.0
-9.0
-22.0
-26.0
-27.0
-27.0
-27.0
-26.0
-25.0
-25.0
-25.0
-27.0
-28.0
-25.0
-28.0
-25.0
-24.0
-26.0
-22.0
-24.0
-28.0
-29.0
-26.0
-26.0
-28.0
-29.0
-29.0
-29.0
-27.0
-28.0
-26.0
-25.0
-27.0
-29.0
-31.0
-35.0
-38.0
-40.0
-41.0
-41.0
-43.0
-46.0
-47.0
-45.0
-44.0
-40.0
-37.0
-38.0
-37.0
-35.0
-30.0
-25.0
-20.0
-18.0
-11.0
-3.0
-1.0
0.0
2.0
2.0
4.0
1.0
5.0
5.0
5.0
7.0
5.0
4.0
4.0
7.0
4.0
1.0
1.0
1.0
2.0
3.0
1.0
0.0
1.0
1.0
0.0
1.0
3.0
2.0
0.0
0.0
2.0
2.0
1.0
3.0
3.0
2.0
0.0
1.0
0.0
0.0
0.0
2.0
3.0
1.0
1.0
0.0
4.0
2.0
3.0
4.0
3.0
3.0
1.0
1.0
4.0
4.0
2.0
1.0
0.0
0.0
3.0
5.0
4.0
4.0
3.0
3.0
3.0
1.0
2.0
3.0
2.0
2.0
0.0
1.0
3.0
3.0
4.0
7.0
5.0
7.0
8.0
11.0
9.0
3.0
3.0
4.0
0.0
0.0
4.0
4.0
0.0
3.0
3.0
1.0
0.0
0.0
7.0
17.0
21.0
27.0
38.0
39.0
35.0
42.0
65.0
92.0
126.0
151.0
162.0
158.0
109.0
40.0
2.0
-11.0
-16.0
-19.0
-22.0
-20.0
-18.0
-19.0
-22.0
-21.0
-18.0
-20.0
-20.0
-16.0
-21.0
-20.0
-19.0
-18.0
-20.0
-23.0
-21.0
-21.0
-20.0
-20.0
-23.0
-20.0
-21.0
-19.0
-21.0
-23.0
-23.0
-23.0
-27.0
-26.0
-28.0
-32.0
-34.0
-33.0
-33.0
-36.0
-40.0
-39.0
-35.0
-36.0
-37.0
-32.0
-30.0
-28.0
-25.0
-22.0
-20.0
-15.0
-7.0
-3.0
0.0
3.0
3.0
3.0
3.0
8.0
8.0
12.0
12.0
11.0
8.0
9.0
10.0
10.0
11.0
8.0
7.0
7.0
7.0
7.0
3.0
4.0
6.0
5.0
4.0
3.0
3.0
4.0
4.0
4.0
2.0
0.0
2.0
5.0
3.0
2.0
1.0
1.0
2.0
2.0
0.0
1.0
2.0
4.0
4.0
3.0
2.0
0.0
0.0
0.0
0.0
2.0
0.0
1.0
2.0
0.0
0.0
0.0
2.0
2.0
-1.0
0.0
0.0
0.0
0.0
1.0
2.0
1.0
1.0
3.0
0.0
-1.0
-1.0
0.0
0.0
0.0
0.0
1.0
0.0
0.0
1.0
4.0
6.0
7.0
9.0
7.0
2.0
0.0
0.0
0.0
0.0
-1.0
-1.0
-2.0
-2.0
-1.0
-1.0
-2.0
1.0
15.0
14.0
20.0
34.0
42.0
33.0
35.0
55.0
84.0
113.0
138.0
150.0
158.0
117.0
45.0
3.0
-12.0
-19.0
-21.0
-23.0
-25.0
-25.0
-23.0
-22.0
-24.0
-25.0
-27.0
-24.0
-24.0
-24.0
-24.0
-23.0
-21.0
-20.0
-16.0
-22.0
-23.0
-24.0
-24.0
-22.0
-22.0
-24.0
-24.0
-24.0
-24.0
-24.0
-25.0
-25.0
-25.0
-27.0
-30.0
-32.0
-33.0
-35.0
-39.0
-41.0
-41.0
-41.0
-40.0
-39.0
-35.0
-30.0
-29.0
-29.0
-26.0
-23.0
-18.0
-12.0
-6.0
-1.0
0.0
0.0
3.0
7.0
7.0
8.0
9.0
9.0
11.0
12.0
12.0
11.0
9.0
8.0
7.0
6.0
6.0
6.0
3.0
3.0
4.0
2.0
3.0
3.0
3.0
4.0
3.0
3.0
3.0
4.0
2.0
1.0
1.0
1.0
0.0
-1.0
0.0
0.0
0.0
0.0
3.0
2.0
0.0
0.0
0.0
1.0
0.0
0.0
0.0
0.0
0.0
0.0
1.0
1.0
-2.0
0.0
0.0
0.0
0.0
1.0
1.0
0.0
0.0
0.0
2.0
2.0
2.0
1.0
-1.0
-3.0
-1.0
0.0
0.0
0.0
0.0
0.0
0.0
1.0
0.0
1.0
4.0
6.0
9.0
9.0
2.0
0.0
-2.0
-2.0
-3.0
0.0
0.0
0.0
0.0
-1.0
-1.0
-3.0
-2.0
4.0
20.0
14.0
28.0
42.0
41.0
28.0
40.0
65.0
95.0
126.0
147.0
157.0
154.0
93.0
24.0
-2.0
-9.0
-17.0
-24.0
-24.0
-22.0
-22.0
-23.0
-23.0
-23.0
-22.0
-22.0
-23.0
-22.0
-22.0
-24.0
-23.0
-21.0
-21.0
-20.0
-19.0
-16.0
-17.0
-21.0
-22.0
-22.0
-23.0
-23.0
-23.0
-23.0
-23.0
-23.0
-21.0
-24.0
-26.0
-28.0
-29.0
-31.0
-35.0
-39.0
-41.0
-42.0
-42.0
-36.0
-32.0
-32.0
-31.0
-27.0
-25.0
-25.0
-21.0
-12.0
-6.0
-4.0
-2.0
0.0
0.0
4.0
8.0
9.0
11.0
11.0
11.0
12.0
11.0
8.0
10.0
8.0
8.0
8.0
6.0
5.0
4.0
3.0
3.0
3.0
3.0
4.0
4.0
2.0
3.0
2.0
0.0
1.0
3.0
3.0
2.0
1.0
0.0
0.0
0.0
0.0
0.0
0.0
0.0
0.0
-1.0
-1.0
0.0
0.0
0.0
-1.0
0.0
-1.0
-2.0
-3.0
-2.0
0.0
-3.0
-3.0
-5.0
-2.0
-2.0
0.0
0.0
0.0
-2.0
0.0
-1.0
-1.0
-1.0
-2.0
0.0
-1.0
-2.0
-3.0
-3.0
-4.0
-3.0
-3.0
-3.0
-3.0
-2.0
-2.0
-1.0
0.0
1.0
3.0
2.0
-1.0
-6.0
-8.0
-8.0
-7.0
-5.0
-3.0
-3.0
-4.0
-7.0
-4.0
-4.0
-5.0
-4.0
5.0
7.0
12.0
26.0
26.0
21.0
26.0
51.0
80.0
111.0
135.0
146.0
158.0
108.0
35.0
-4.0
-19.0
-24.0
-27.0
-29.0
-29.0
-29.0
-28.0
-27.0
-27.0
-27.0
-30.0
-31.0
-30.0
-29.0
-29.0
-28.0
-26.0
-26.0
-28.0
-26.0
-25.0
-25.0
-26.0
-25.0
-26.0
-25.0
-29.0
-30.0
-31.0
-31.0
-31.0
-31.0
-32.0
-32.0
-29.0
-37.0
-41.0
-39.0
-41.0
-44.0
-45.0
-45.0
-45.0
-45.0
-42.0
-37.0
-33.0
-30.0
-29.0
-30.0
-25.0
-20.0
-14.0
-6.0
-2.0
0.0
1.0
1.0
4.0
4.0
6.0
8.0
8.0
6.0
6.0
6.0
8.0
6.0
7.0
6.0
5.0
7.0
6.0
7.0
7.0
3.0
3.0
4.0
7.0
4.0
3.0
4.0
4.0
4.0
3.0
5.0
7.0
5.0
1.0
1.0
2.0
2.0
2.0
4.0
4.0
5.0
4.0
6.0
5.0
3.0
3.0
3.0
3.0
3.0
4.0
4.0
3.0
2.0
2.0
4.0
4.0
4.0
4.0
5.0
0.0
3.0
3.0
2.0
2.0
2.0
3.0
4.0
4.0
4.0
4.0
1.0
3.0
3.0
1.0
2.0
4.0
3.0
3.0
4.0
5.0
9.0
11.0
7.0
4.0
0.0
0.0
-2.0
-2.0
0.0
0.0
-2.0
-2.0
-1.0
-2.0
-3.0
-2.0
1.0
14.0
14.0
14.0
29.0
32.0
29.0
29.0
51.0
80.0
110.0
137.0
153.0
165.0
128.0
54.0
8.0
-8.0
-19.0
-23.0
-24.0
-25.0
-25.0
-24.0
-22.0
-22.0
-23.0
-24.0
-24.0
-23.0
-21.0
-20.0
-21.0
-22.0
-20.0
-23.0
-24.0
-25.0
-24.0
-20.0
-23.0
-23.0
-22.0
-20.0
-22.0
-20.0
-22.0
-24.0
-28.0
-27.0
-28.0
-29.0
-29.0
-32.0
-32.0
-34.0
-39.0
-38.0
-40.0
-41.0
-38.0
-38.0
-36.0
-33.0
-29.0
-24.0
-21.0
-18.0
-13.0
-7.0
-2.0
1.0
2.0
4.0
6.0
10.0
11.0
9.0
10.0
10.0
8.0
9.0
8.0
8.0
8.0
7.0
6.0
4.0
5.0
5.0
4.0
6.0
7.0
4.0
4.0
4.0
4.0
5.0
2.0
2.0
3.0
2.0
0.0
0.0
2.0
2.0
1.0
0.0
0.0
1.0
1.0
2.0
4.0
1.0
-1.0
0.0
0.0
1.0
2.0
0.0
0.0
0.0
0.0
0.0
0.0
0.0
3.0
1.0
2.0
0.0
0.0
0.0
0.0
0.0
0.0
0.0
0.0
1.0
0.0
2.0
2.0
1.0
0.0
0.0
0.0
0.0
0.0
3.0
6.0
8.0
8.0
6.0
1.0
0.0
0.0
0.0
0.0
0.0
0.0
0.0
0.0
-1.0
-1.0
-2.0
-4.0
0.0
10.0
14.0
22.0
36.0
42.0
29.0
39.0
60.0
91.0
125.0
151.0
159.0
167.0
100.0
24.0
-4.0
-13.0
-19.0
-23.0
-23.0
-23.0
-22.0
-23.0
-24.0
-24.0
-23.0
-23.0
-24.0
-24.0
-24.0
-23.0
-23.0
-22.0
-21.0
-22.0
-22.0
-21.0
-22.0
-23.0
-23.0
-22.0
-21.0
-21.0
-22.0
-24.0
-25.0
-25.0
-27.0
-29.0
-29.0
-31.0
-31.0
-31.0
-34.0
-35.0
-41.0
-42.0
-39.0
-40.0
-36.0
-33.0
-31.0
-31.0
-28.0
-24.0
-21.0
-14.0
-9.0
-5.0
-2.0
0.0
1.0
5.0
7.0
7.0
9.0
12.0
14.0
13.0
10.0
8.0
7.0
8.0
8.0
8.0
7.0
7.0
7.0
7.0
7.0
7.0
5.0
4.0
4.0
4.0
5.0
4.0
4.0
2.0
1.0
3.0
4.0
4.0
3.0
3.0
5.0
2.0
0.0
1.0
3.0
3.0
2.0
0.0
1.0
1.0
1.0
3.0
2.0
0.0
0.0
1.0
3.0
2.0
0.0
0.0
0.0
2.0
3.0
2.0
0.0
0.0
0.0
0.0
0.0
0.0
1.0
0.0
2.0
0.0
0.0
0.0
0.0
0.0
0.0
0.0
0.0
1.0
2.0
4.0
7.0
8.0
6.0
2.0
0.0
0.0
0.0
0.0
-1.0
-1.0
-1.0
-2.0
-1.0
0.0
-2.0
-2.0
0.0
8.0
13.0
20.0
34.0
40.0
34.0
32.0
53.0
83.0
116.0
143.0
155.0
164.0
124.0
39.0
0.0
-14.0
-19.0
-23.0
-23.0
-24.0
-25.0
-24.0
-24.0
-23.0
-23.0
-25.0
-26.0
-23.0
-23.0
-23.0
-22.0
-22.0
-22.0
-22.0
-21.0
-22.0
-22.0
-24.0
-23.0
-21.0
-21.0
-23.0
-21.0
-22.0
-23.0
-24.0
-23.0
-23.0
-29.0
-29.0
-32.0
-34.0
-38.0
-37.0
-41.0
-41.0
-41.0
-37.0
-40.0
-39.0
-35.0
-29.0
-26.0
-24.0
-22.0
-16.0
-11.0
-8.0
-5.0
-2.0
0.0
1.0
2.0
4.0
5.0
4.0
4.0
5.0
7.0
6.0
7.0
5.0
4.0
3.0
3.0
3.0
2.0
1.0
0.0
0.0
0.0
0.0
0.0
0.0
0.0
-1.0
-1.0
-2.0
-2.0
-2.0
0.0
0.0
0.0
-1.0
-2.0
-4.0
-5.0
-3.0
-4.0
-4.0
-3.0
0.0
-2.0
-5.0
-4.0
-3.0
-3.0
-3.0
-4.0
-4.0
-3.0
-3.0
-4.0
-2.0
-1.0
-4.0
-8.0
-9.0
-6.0
-5.0
-7.0
-4.0
-4.0
-6.0
-5.0
-3.0
-3.0
-6.0
-5.0
-4.0
-5.0
-7.0
-8.0
-8.0
-8.0
-6.0
-5.0
-7.0
-6.0
-3.0
0.0
0.0
0.0
0.0
-1.0
-5.0
-5.0
-5.0
-8.0
-8.0
-8.0
-7.0
-6.0
-7.0
-6.0
-6.0
-8.0
-4.0
3.0
7.0
8.0
14.0
26.0
26.0
26.0
43.0
73.0
105.0
133.0
147.0
155.0
131.0
44.0
-1.0
-17.0
-24.0
-28.0
-29.0
-27.0
-25.0
-25.0
-31.0
-29.0
-29.0
-26.0
-28.0
-30.0
-29.0
-27.0
-27.0
-25.0
-25.0
-25.0
-25.0
-26.0
-26.0
-26.0
-27.0
-27.0
-25.0
-26.0
-28.0
-25.0
-25.0
-27.0
-28.0
-26.0
-31.0
-33.0
-39.0
-43.0
-41.0
-41.0
-41.0
-41.0
-39.0
-42.0
-43.0
-42.0
-34.0
-32.0
-29.0
-26.0
-23.0
-17.0
-13.0
-7.0
-5.0
-1.0
0.0
1.0
3.0
7.0
8.0
10.0
12.0
13.0
13.0
10.0
8.0
8.0
9.0
9.0
8.0
9.0
8.0
4.0
4.0
6.0
7.0
5.0
3.0
4.0
6.0
5.0
4.0
4.0
7.0
3.0
3.0
1.0
1.0
0.0
3.0
4.0
4.0
3.0
3.0
7.0
6.0
4.0
4.0
2.0
0.0
0.0
3.0
4.0
4.0
3.0
1.0
1.0
3.0
4.0
3.0
3.0
1.0
0.0
1.0
0.0
0.0
2.0
3.0
3.0
1.0
3.0
4.0
2.0
2.0
0.0
1.0
4.0
4.0
0.0
0.0
0.0
1.0
1.0
3.0
4.0
5.0
9.0
11.0
9.0
5.0
4.0
2.0
1.0
0.0
0.0
0.0
1.0
0.0
0.0
1.0
0.0
1.0
8.0
18.0
23.0
33.0
43.0
38.0
32.0
48.0
75.0
106.0
131.0
152.0
156.0
155.0
77.0
12.0
-8.0
-10.0
-15.0
-16.0
-20.0
-21.0
-22.0
-22.0
-23.0
-24.0
-21.0
-23.0
-23.0
-23.0
-23.0
-20.0
-21.0
-18.0
-16.0
-20.0
-21.0
-21.0
-22.0
-23.0
-22.0
-19.0
-20.0
-24.0
-22.0
-19.0
-20.0
-24.0
-24.0
-26.0
-29.0
-32.0
-31.0
-33.0
-35.0
-38.0
-35.0
-40.0
-33.0
-40.0
-37.0
-29.0
-29.0
-29.0
-27.0
-24.0
-19.0
-9.0
-8.0
-4.0
-2.0
0.0
4.0
7.0
7.0
8.0
10.0
11.0
13.0
11.0
9.0
9.0
8.0
8.0
8.0
10.0
9.0
5.0
5.0
4.0
4.0
5.0
2.0
0.0
4.0
4.0
4.0
7.0
5.0
1.0
2.0
3.0
4.0
4.0
0.0
0.0
0.0
2.0
3.0
0.0
-2.0
0.0
0.0
0.0
1.0
4.0
1.0
0.0
0.0
0.0
1.0
0.0
0.0
0.0
1.0
1.0
0.0
1.0
2.0
1.0
0.0
0.0
0.0
0.0
0.0
1.0
2.0
1.0
-2.0
-1.0
0.0
0.0
1.0
0.0
0.0
0.0
0.0
0.0
0.0
0.0
3.0
9.0
9.0
5.0
4.0
0.0
-2.0
-2.0
0.0
0.0
0.0
-2.0
-2.0
-1.0
0.0
0.0
1.0
13.0
19.0
15.0
25.0
40.0
38.0
28.0
42.0
74.0
107.0
137.0
153.0
154.0
148.0
73.0
7.0
-6.0
-12.0
-18.0
-22.0
-26.0
-26.0
-25.0
-16.0
-21.0
-23.0
-26.0
-25.0
-20.0
-23.0
-24.0
-23.0
-23.0
-23.0
-23.0
-23.0
-24.0
-22.0
-21.0
-23.0
-24.0
-25.0
-24.0
-22.0
-23.0
-23.0
-24.0
-27.0
-29.0
-28.0
-28.0
-31.0
-32.0
-34.0
-41.0
-41.0
-42.0
-39.0
-39.0
-42.0
-41.0
-31.0
-31.0
-30.0
-27.0
-21.0
-20.0
-18.0
-10.0
-5.0
0.0
0.0
1.0
6.0
7.0
9.0
10.0
9.0
10.0
9.0
7.0
7.0
8.0
7.0
6.0
5.0
4.0
5.0
4.0
4.0
4.0
3.0
2.0
1.0
4.0
3.0
2.0
0.0
0.0
0.0
1.0
1.0
1.0
0.0
0.0
0.0
0.0
1.0
0.0
-1.0
0.0
2.0
0.0
-1.0
-2.0
1.0
0.0
-2.0
0.0
0.0
-1.0
-2.0
0.0
0.0
-1.0
0.0
0.0
0.0
0.0
-2.0
-2.0
0.0
1.0
-3.0
-4.0
-3.0
-2.0
-1.0
-1.0
-1.0
-2.0
-2.0
-2.0
0.0
0.0
-3.0
-2.0
0.0
0.0
1.0
3.0
7.0
7.0
3.0
0.0
0.0
0.0
-2.0
-3.0
-4.0
-3.0
-5.0
-5.0
-3.0
-2.0
-2.0
1.0
11.0
14.0
17.0
30.0
37.0
32.0
33.0
53.0
82.0
112.0
138.0
154.0
158.0
126.0
43.0
-1.0
-11.0
-18.0
-23.0
-25.0
-24.0
-22.0
-24.0
-24.0
-24.0
-24.0
-25.0
-25.0
-28.0
-27.0
-24.0
-24.0
-24.0
-22.0
-25.0
-25.0
-25.0
-24.0
-24.0
-26.0
-26.0
-25.0
-25.0
-27.0
-26.0
-25.0
-27.0
-30.0
-33.0
-36.0
-37.0
-35.0
-40.0
-46.0
-45.0
-44.0
-44.0
-45.0
-47.0
-45.0
-44.0
-40.0
-40.0
-34.0
-31.0
-30.0
-22.0
-12.0
-10.0
-6.0
-6.0
0.0
0.0
2.0
3.0
4.0
6.0
7.0
7.0
5.0
5.0
1.0
0.0
1.0
1.0
0.0
-2.0
-3.0
-1.0
0.0
0.0
0.0
0.0
1.0
0.0
0.0
0.0
0.0
0.0
0.0
-1.0
0.0
0.0
-2.0
-1.0
0.0
0.0
0.0
0.0
0.0
0.0
0.0
0.0
0.0
0.0
0.0
-2.0
-2.0
0.0
0.0
-2.0
-2.0
0.0
0.0
0.0
-1.0
-1.0
-1.0
-2.0
-1.0
-1.0
-2.0
-2.0
-2.0
-1.0
1.0
2.0
0.0
-1.0
0.0
0.0
0.0
0.0
0.0
0.0
0.0
-2.0
0.0
1.0
4.0
4.0
3.0
1.0
0.0
0.0
-1.0
0.0
-1.0
0.0
0.0
-1.0
-1.0
0.0
-3.0
-4.0
0.0
10.0
10.0
13.0
24.0
29.0
24.0
25.0
44.0
76.0
105.0
129.0
147.0
153.0
127.0
56.0
6.0
-8.0
-22.0
-29.0
-28.0
-26.0
-24.0
-24.0
-24.0
-28.0
-23.0
-24.0
-24.0
-23.0
-22.0
-23.0
-22.0
-22.0
-23.0
-22.0
-22.0
-18.0
-18.0
-18.0
-19.0
-21.0
-23.0
-18.0
-19.0
-20.0
-22.0
-24.0
-22.0
-23.0
-24.0
-24.0
-25.0
-27.0
-27.0
-29.0
-26.0
-24.0
-28.0
-31.0
-27.0
-24.0
-24.0
-22.0
-22.0
-17.0
-11.0
-8.0
-7.0
0.0
6.0
6.0
8.0
9.0
11.0
19.0
24.0
25.0
22.0
23.0
24.0
25.0
21.0
23.0
24.0
20.0
15.0
17.0
16.0
11.0
10.0
12.0
10.0
10.0
10.0
9.0
7.0
6.0
8.0
10.0
7.0
5.0
4.0
4.0
7.0
7.0
4.0
7.0
8.0
7.0
4.0
7.0
7.0
10.0
6.0
2.0
3.0
0.0
3.0
5.0
5.0
5.0
6.0
7.0
4.0
3.0
3.0
1.0
5.0
6.0
6.0
7.0
4.0
1.0
2.0
3.0
2.0
1.0
3.0
5.0
6.0
4.0
1.0
1.0
3.0
2.0
1.0
4.0
5.0
3.0
7.0
7.0
9.0
9.0
2.0
0.0
0.0
0.0
2.0
0.0
0.0
0.0
0.0
0.0
0.0
0.0
2.0
14.0
17.0
20.0
29.0
39.0
39.0
34.0
47.0
75.0
103.0
130.0
150.0
165.0
146.0
80.0
19.0
-4.0
-11.0
-14.0
-15.0
-20.0
-24.0
-24.0
-23.0
-22.0
-20.0
-20.0
-23.0
-22.0
-22.0
-23.0
-22.0
-18.0
-20.0
-20.0
-23.0
-20.0
-12.0
-20.0
-20.0
-20.0
-22.0
-22.0
-22.0
-22.0
-22.0
-21.0
-21.0
-25.0
-29.0
-31.0
-30.0
-30.0
-33.0
-37.0
-40.0
-40.0
-38.0
-37.0
-38.0
-39.0
-35.0
-32.0
-29.0
-24.0
-23.0
-19.0
-11.0
-4.0
0.0
0.0
-1.0
1.0
5.0
5.0
10.0
14.0
16.0
13.0
10.0
11.0
8.0
8.0
8.0
8.0
7.0
7.0
7.0
7.0
8.0
8.0
6.0
3.0
3.0
2.0
3.0
6.0
6.0
5.0
5.0
3.0
1.0
2.0
6.0
3.0
1.0
0.0
0.0
3.0
4.0
3.0
2.0
0.0
0.0
3.0
3.0
3.0
3.0
2.0
0.0
0.0
3.0
3.0
2.0
2.0
0.0
0.0
1.0
1.0
1.0
4.0
2.0
0.0
0.0
0.0
0.0
2.0
1.0
2.0
4.0
4.0
3.0
1.0
0.0
0.0
2.0
2.0
2.0
4.0
5.0
8.0
7.0
4.0
3.0
2.0
0.0
0.0
0.0
2.0
1.0
2.0
2.0
0.0
-1.0
-1.0
-1.0
7.0
20.0
22.0
28.0
39.0
33.0
28.0
48.0
76.0
100.0
127.0
149.0
161.0
148.0
86.0
21.0
-5.0
-12.0
-18.0
-23.0
-23.0
-22.0
-19.0
-19.0
-22.0
-23.0
-24.0
-25.0
-23.0
-22.0
-21.0
-18.0
-22.0
-22.0
-23.0
-23.0
-23.0
-22.0
-24.0
-24.0
-22.0
-20.0
-22.0
-23.0
-23.0
-21.0
-25.0
-28.0
-27.0
-27.0
-28.0
-26.0
-29.0
-32.0
-38.0
-41.0
-41.0
-41.0
-41.0
-39.0
-39.0
-38.0
-35.0
-30.0
-25.0
-22.0
-18.0
-16.0
-13.0
-6.0
-1.0
0.0
1.0
5.0
9.0
9.0
10.0
10.0
8.0
10.0
9.0
8.0
9.0
10.0
7.0
6.0
9.0
7.0
7.0
4.0
6.0
4.0
2.0
0.0
0.0
2.0
2.0
3.0
4.0
4.0
5.0
6.0
4.0
2.0
0.0
1.0
2.0
0.0
-1.0
-1.0
0.0
0.0
1.0
3.0
0.0
4.0
3.0
1.0
3.0
4.0
2.0
0.0
0.0
0.0
1.0
1.0
1.0
0.0
0.0
0.0
0.0
0.0
0.0
2.0
2.0
0.0
2.0
3.0
1.0
0.0
1.0
2.0
1.0
0.0
1.0
1.0
0.0
0.0
4.0
7.0
7.0
6.0
5.0
1.0
0.0
0.0
1.0
0.0
0.0
0.0
0.0
0.0
-2.0
-1.0
0.0
-2.0
2.0
13.0
12.0
27.0
42.0
38.0
24.0
35.0
65.0
95.0
123.0
146.0
154.0
146.0
85.0
20.0
-7.0
-17.0
-21.0
-22.0
-25.0
-26.0
-25.0
-26.0
-25.0
-24.0
-25.0
-29.0
-27.0
-24.0
-24.0
-23.0
-23.0
-23.0
-24.0
-25.0
-29.0
-28.0
-25.0
-24.0
-26.0
-26.0
-26.0
-29.0
-30.0
-29.0
-29.0
-27.0
-28.0
-34.0
-33.0
-34.0
-40.0
-38.0
-39.0
-43.0
-44.0
-44.0
-45.0
-45.0
-44.0
-42.0
-41.0
-37.0
-33.0
-29.0
-22.0
-18.0
-15.0
-8.0
-4.0
-3.0
-1.0
0.0
0.0
0.0
3.0
3.0
4.0
4.0
4.0
4.0
4.0
3.0
3.0
3.0
2.0
0.0
0.0
0.0
2.0
0.0
0.0
1.0
0.0
0.0
0.0
0.0
-2.0
0.0
2.0
1.0
0.0
-1.0
-1.0
0.0
-1.0
-1.0
0.0
-1.0
-2.0
-2.0
-3.0
-1.0
0.0
0.0
0.0
-2.0
-2.0
-2.0
0.0
0.0
-2.0
0.0
-1.0
-5.0
-4.0
-2.0
0.0
0.0
0.0
0.0
0.0
0.0
0.0
0.0
0.0
0.0
0.0
0.0
0.0
0.0
0.0
0.0
0.0
0.0
0.0
0.0
0.0
0.0
0.0
0.0
2.0
4.0
3.0
0.0
-2.0
-2.0
-1.0
0.0
0.0
0.0
0.0
0.0
0.0
0.0
0.0
0.0
9.0
23.0
12.0
17.0
34.0
32.0
27.0
41.0
75.0
104.0
132.0
150.0
161.0
149.0
81.0
21.0
-3.0
-9.0
-12.0
-16.0
-19.0
-20.0
-20.0
-20.0
-18.0
-19.0
-20.0
-20.0
-19.0
-18.0
-20.0
-20.0
-17.0
-11.0
-11.0
-13.0
-18.0
-16.0
-12.0
-14.0
-16.0
-10.0
-12.0
-21.0
-20.0
-20.0
-20.0
-21.0
-22.0
-23.0
-23.0
-23.0
-23.0
-26.0
-28.0
-31.0
-31.0
-31.0
-29.0
-30.0
-31.0
-27.0
-24.0
-24.0
-22.0
-16.0
-8.0
-4.0
0.0
3.0
6.0
7.0
7.0
10.0
15.0
19.0
20.0
17.0
16.0
13.0
12.0
12.0
16.0
12.0
11.0
10.0
9.0
10.0
10.0
10.0
9.0
10.0
9.0
6.0
7.0
6.0
5.0
4.0
6.0
7.0
5.0
3.0
5.0
6.0
5.0
5.0
4.0
4.0
6.0
8.0
6.0
5.0
4.0
4.0
4.0
4.0
3.0
3.0
3.0
2.0
4.0
4.0
4.0
4.0
4.0
6.0
4.0
3.0
4.0
4.0
4.0
4.0
3.0
1.0
0.0
5.0
4.0
3.0
2.0
4.0
5.0
4.0
2.0
3.0
3.0
3.0
1.0
1.0
2.0
4.0
8.0
10.0
11.0
9.0
5.0
2.0
2.0
4.0
2.0
0.0
0.0
1.0
0.0
0.0
0.0
0.0
0.0
8.0
24.0
22.0
29.0
44.0
41.0
30.0
40.0
71.0
100.0
133.0
153.0
156.0
159.0
88.0
21.0
-4.0
-14.0
-18.0
-20.0
-20.0
-19.0
-20.0
-20.0
-21.0
-23.0
-24.0
-22.0
-21.0
-22.0
-21.0
-20.0
-21.0
-19.0
-18.0
-20.0
-19.0
-19.0
-19.0
-18.0
-20.0
-19.0
-16.0
-16.0
-20.0
-22.0
-23.0
-23.0
-24.0
-24.0
-26.0
-28.0
-29.0
-30.0
-31.0
-32.0
-34.0
-39.0
-34.0
-32.0
-32.0
-35.0
-31.0
-29.0
-25.0
-22.0
-17.0
-10.0
-5.0
-1.0
0.0
0.0
1.0
4.0
5.0
7.0
9.0
11.0
12.0
12.0
11.0
9.0
10.0
9.0
8.0
8.0
7.0
6.0
6.0
4.0
4.0
4.0
5.0
4.0
4.0
5.0
5.0
5.0
4.0
1.0
3.0
4.0
4.0
4.0
5.0
3.0
2.0
3.0
3.0
2.0
2.0
1.0
1.0
2.0
3.0
2.0
0.0
1.0
2.0
2.0
1.0
0.0
2.0
2.0
2.0
0.0
0.0
2.0
2.0
3.0
1.0
0.0
0.0
0.0
0.0
2.0
0.0
0.0
0.0
1.0
2.0
2.0
1.0
2.0
0.0
0.0
0.0
0.0
1.0
3.0
6.0
9.0
9.0
3.0
0.0
0.0
0.0
0.0
0.0
0.0
0.0
-1.0
-2.0
-2.0
-3.0
-2.0
1.0
10.0
15.0
22.0
33.0
39.0
36.0
31.0
53.0
81.0
107.0
137.0
152.0
160.0
138.0
53.0
5.0
-8.0
-17.0
-21.0
-23.0
-24.0
-24.0
-22.0
-23.0
-24.0
-24.0
-24.0
-24.0
-24.0
-24.0
-23.0
-21.0
-21.0
-21.0
-21.0
-20.0
-20.0
-20.0
-21.0
-23.0
-23.0
-23.0
-22.0
-20.0
-23.0
-23.0
-24.0
-24.0
-23.0
-22.0
-27.0
-29.0
-35.0
-35.0
-35.0
-36.0
-38.0
-40.0
-41.0
-35.0
-33.0
-29.0
-29.0
-26.0
-23.0
-20.0
-18.0
-13.0
-6.0
-2.0
0.0
0.0
2.0
4.0
6.0
8.0
9.0
11.0
12.0
11.0
10.0
10.0
8.0
8.0
8.0
8.0
8.0
8.0
8.0
7.0
5.0
5.0
6.0
4.0
4.0
2.0
1.0
2.0
3.0
3.0
3.0
3.0
2.0
2.0
3.0
3.0
3.0
4.0
5.0
4.0
2.0
0.0
0.0
2.0
1.0
0.0
0.0
0.0
0.0
0.0
0.0
1.0
3.0
1.0
1.0
2.0
2.0
4.0
2.0
0.0
0.0
0.0
0.0
0.0
0.0
0.0
0.0
0.0
1.0
1.0
0.0
0.0
0.0
0.0
0.0
0.0
0.0
0.0
0.0
4.0
7.0
8.0
6.0
3.0
0.0
-2.0
-3.0
-4.0
-3.0
-3.0
-3.0
-3.0
-3.0
-3.0
-3.0
-3.0
-1.0
4.0
10.0
13.0
24.0
33.0
29.0
20.0
37.0
66.0
93.0
123.0
141.0
147.0
145.0
64.0
7.0
-13.0
-23.0
-24.0
-28.0
-29.0
-27.0
-27.0
-28.0
-30.0
-29.0
-29.0
-29.0
-29.0
-27.0
-26.0
-26.0
-28.0
-27.0
-27.0
-27.0
-27.0
-27.0
-27.0
-29.0
-29.0
-28.0
-27.0
-29.0
-30.0
-29.0
-30.0
-33.0
-34.0
-39.0
-41.0
-42.0
-41.0
-41.0
-45.0
-47.0
-50.0
-47.0
-47.0
-46.0
-44.0
-44.0
-43.0
-37.0
-35.0
-31.0
-25.0
-20.0
-20.0
-15.0
-9.0
-6.0
-2.0
0.0
1.0
3.0
4.0
4.0
4.0
5.0
4.0
4.0
4.0
2.0
0.0
0.0
1.0
1.0
1.0
0.0
0.0
0.0
0.0
0.0
0.0
0.0
0.0
0.0
0.0
0.0
0.0
0.0
0.0
-2.0
-3.0
0.0
-1.0
-2.0
0.0
0.0
-1.0
0.0
0.0
0.0
-1.0
-3.0
-3.0
-1.0
0.0
0.0
0.0
0.0
0.0
0.0
-2.0
-2.0
-1.0
0.0
-1.0
0.0
0.0
0.0
0.0
0.0
0.0
2.0
0.0
0.0
0.0
0.0
0.0
0.0
2.0
2.0
4.0
3.0
3.0
3.0
3.0
4.0
4.0
5.0
11.0
12.0
12.0
7.0
3.0
0.0
0.0
0.0
1.0
1.0
1.0
2.0
2.0
3.0
2.0
1.0
8.0
19.0
22.0
27.0
40.0
42.0
35.0
43.0
68.0
96.0
128.0
154.0
162.0
169.0
106.0
29.0
0.0
-5.0
-11.0
-12.0
-13.0
-17.0
-18.0
-12.0
-15.0
-14.0
-15.0
-12.0
-16.0
-13.0
-8.0
-10.0
-15.0
-14.0
-12.0
-13.0
-12.0
-10.0
-10.0
-11.0
-11.0
-12.0
-14.0
-13.0
-12.0
-13.0
-18.0
-18.0
-20.0
-20.0
-22.0
-24.0
-25.0
-25.0
-25.0
-29.0
-30.0
-29.0
-32.0
-30.0
-26.0
-25.0
-28.0
-25.0
-18.0
-12.0
-12.0
-8.0
-4.0
-1.0
1.0
3.0
6.0
7.0
9.0
17.0
19.0
20.0
21.0
17.0
15.0
17.0
19.0
18.0
16.0
16.0
12.0
11.0
10.0
8.0
8.0
8.0
8.0
7.0
6.0
6.0
8.0
8.0
7.0
6.0
6.0
6.0
8.0
7.0
6.0
4.0
4.0
4.0
5.0
3.0
4.0
6.0
3.0
3.0
3.0
4.0
4.0
4.0
4.0
3.0
1.0
1.0
1.0
3.0
4.0
2.0
1.0
1.0
1.0
2.0
4.0
4.0
4.0
4.0
3.0
1.0
0.0
1.0
4.0
3.0
0.0
0.0
0.0
0.0
2.0
2.0
1.0
3.0
4.0
8.0
10.0
11.0
7.0
2.0
0.0
0.0
2.0
2.0
2.0
0.0
-1.0
-1.0
0.0
0.0
-2.0
0.0
11.0
18.0
18.0
27.0
38.0
37.0
32.0
47.0
74.0
103.0
128.0
149.0
155.0
148.0
78.0
13.0
-9.0
-18.0
-20.0
-23.0
-23.0
-22.0
-22.0
-23.0
-24.0
-23.0
-23.0
-23.0
-23.0
-22.0
-21.0
-22.0
-23.0
-21.0
-20.0
-22.0
-24.0
-24.0
-22.0
-23.0
-24.0
-24.0
-23.0
-22.0
-22.0
-23.0
-25.0
-24.0
-25.0
-29.0
-30.0
-30.0
-33.0
-34.0
-39.0
-41.0
-40.0
-39.0
-42.0
-41.0
-40.0
-32.0
-29.0
-28.0
-26.0
-23.0
-16.0
-12.0
-8.0
-3.0
-3.0
0.0
3.0
4.0
7.0
9.0
11.0
10.0
10.0
10.0
10.0
8.0
8.0
9.0
8.0
6.0
6.0
6.0
7.0
7.0
5.0
4.0
5.0
5.0
4.0
4.0
4.0
3.0
2.0
0.0
0.0
0.0
4.0
2.0
0.0
0.0
2.0
1.0
1.0
2.0
1.0
2.0
0.0
1.0
2.0
0.0
0.0
0.0
0.0
0.0
0.0
0.0
0.0
4.0
3.0
0.0
0.0
0.0
0.0
0.0
0.0
0.0
0.0
0.0
0.0
0.0
0.0
0.0
0.0
1.0
1.0
1.0
0.0
0.0
0.0
4.0
7.0
8.0
10.0
10.0
4.0
1.0
0.0
1.0
0.0
0.0
0.0
0.0
-1.0
-1.0
0.0
0.0
-1.0
2.0
13.0
19.0
24.0
36.0
38.0
28.0
33.0
58.0
87.0
115.0
141.0
155.0
154.0
116.0
39.0
-1.0
-13.0
-18.0
-21.0
-23.0
-24.0
-24.0
-23.0
-22.0
-19.0
-18.0
-24.0
-24.0
-24.0
-22.0
-23.0
-24.0
-24.0
-25.0
-24.0
-22.0
-20.0
-20.0
-20.0
-23.0
-24.0
-24.0
-21.0
-21.0
-25.0
-28.0
-26.0
-24.0
-24.0
-28.0
-31.0
-32.0
-33.0
-34.0
-35.0
-39.0
-41.0
-41.0
-41.0
-39.0
-34.0
-33.0
-34.0
-31.0
-26.0
-24.0
-17.0
-11.0
-7.0
-4.0
-2.0
2.0
3.0
4.0
4.0
9.0
5.0
5.0
10.0
13.0
10.0
8.0
8.0
5.0
4.0
4.0
3.0
3.0
3.0
3.0
1.0
0.0
0.0
0.0
3.0
4.0
0.0
0.0
0.0
-1.0
-2.0
0.0
0.0
2.0
0.0
-1.0
-5.0
-4.0
0.0
2.0
-1.0
-4.0
-2.0
-1.0
-2.0
-3.0
-2.0
-2.0
-4.0
-3.0
-1.0
-3.0
-4.0
-5.0
-3.0
-3.0
-6.0
-5.0
-3.0
-3.0
-3.0
-5.0
-6.0
-6.0
-7.0
-8.0
-8.0
-8.0
-9.0
-6.0
-2.0
-2.0
-5.0
-8.0
-9.0
-6.0
-8.0
-7.0
-3.0
0.0
0.0
0.0
-1.0
-2.0
-5.0
-8.0
-8.0
-8.0
-8.0
-11.0
-12.0
-11.0
-11.0
-11.0
-8.0
-5.0
1.0
5.0
5.0
11.0
22.0
23.0
18.0
29.0
54.0
82.0
112.0
135.0
147.0
137.0
81.0
16.0
-16.0
-27.0
-29.0
-30.0
-36.0
-39.0
-33.0
-29.0
-34.0
-37.0
-30.0
-29.0
-29.0
-31.0
-32.0
-31.0
-30.0
-29.0
-30.0
-29.0
-29.0
-29.0
-31.0
-27.0
-28.0
-29.0
-31.0
-32.0
-29.0
-27.0
-32.0
-33.0
-32.0
-33.0
-32.0
-31.0
-33.0
-37.0
-41.0
-42.0
-41.0
-42.0
-42.0
-44.0
-42.0
-36.0
-31.0
-32.0
-30.0
-25.0
-19.0
-17.0
-13.0
-5.0
-2.0
0.0
1.0
3.0
4.0
4.0
5.0
7.0
8.0
9.0
8.0
11.0
9.0
5.0
7.0
5.0
4.0
4.0
5.0
5.0
5.0
4.0
4.0
4.0
6.0
6.0
4.0
4.0
4.0
5.0
4.0
3.0
3.0
4.0
5.0
6.0
3.0
3.0
4.0
4.0
5.0
5.0
7.0
6.0
3.0
4.0
4.0
4.0
4.0
5.0
6.0
4.0
7.0
6.0
4.0
5.0
6.0
7.0
8.0
8.0
7.0
5.0
5.0
6.0
8.0
9.0
8.0
8.0
8.0
8.0
7.0
6.0
8.0
8.0
7.0
6.0
6.0
7.0
8.0
11.0
18.0
21.0
21.0
15.0
9.0
5.0
3.0
0.0
2.0
2.0
3.0
3.0
4.0
2.0
3.0
2.0
6.0
19.0
23.0
25.0
38.0
47.0
40.0
39.0
59.0
89.0
123.0
145.0
156.0
164.0
128.0
56.0
10.0
-4.0
-10.0
-13.0
-12.0
-15.0
-20.0
-20.0
-20.0
-20.0
-20.0
-20.0
-19.0
-17.0
-21.0
-20.0
-17.0
-14.0
-20.0
-21.0
-14.0
-14.0
-19.0
-18.0
-19.0
-18.0
-20.0
-21.0
-21.0
-22.0
-22.0
-20.0
-23.0
-24.0
-26.0
-26.0
-26.0
-30.0
-34.0
-36.0
-34.0
-35.0
-34.0
-33.0
-35.0
-34.0
-31.0
-27.0
-24.0
-23.0
-20.0
-10.0
-4.0
-1.0
2.0
6.0
6.0
2.0
4.0
7.0
6.0
8.0
8.0
9.0
17.0
13.0
10.0
10.0
8.0
8.0
6.0
6.0
4.0
4.0
5.0
5.0
3.0
2.0
4.0
5.0
6.0
7.0
5.0
2.0
3.0
2.0
0.0
0.0
0.0
0.0
0.0
0.0
1.0
0.0
0.0
0.0
2.0
2.0
1.0
0.0
0.0
2.0
1.0
0.0
0.0
0.0
0.0
3.0
1.0
0.0
0.0
0.0
0.0
0.0
0.0
0.0
0.0
0.0
0.0
0.0
0.0
-1.0
-1.0
-2.0
-3.0
-1.0
0.0
0.0
0.0
0.0
0.0
-1.0
-1.0
2.0
4.0
5.0
7.0
5.0
0.0
-1.0
0.0
0.0
0.0
-1.0
-2.0
-2.0
-9.0
-5.0
-3.0
-2.0
-2.0
8.0
13.0
19.0
32.0
37.0
29.0
28.0
50.0
80.0
112.0
136.0
146.0
158.0
121.0
46.0
0.0
-16.0
-26.0
-26.0
-24.0
-25.0
-25.0
-25.0
-24.0
-23.0
-25.0
-28.0
-29.0
-27.0
-27.0
-25.0
-25.0
-24.0
-24.0
-23.0
-20.0
-26.0
-26.0
-26.0
-29.0
-29.0
-31.0
-26.0
-25.0
-30.0
-31.0
-26.0
-28.0
-32.0
-37.0
-37.0
-40.0
-35.0
-37.0
-44.0
-44.0
-42.0
-37.0
-37.0
-39.0
-35.0
-32.0
-30.0
-27.0
-23.0
-20.0
-16.0
-8.0
-5.0
-5.0
-1.0
1.0
0.0
1.0
6.0
6.0
8.0
11.0
9.0
11.0
8.0
7.0
5.0
5.0
5.0
6.0
7.0
7.0
4.0
4.0
4.0
2.0
3.0
3.0
1.0
0.0
0.0
2.0
3.0
2.0
3.0
3.0
2.0
0.0
2.0
2.0
0.0
2.0
3.0
3.0
1.0
0.0
0.0
1.0
1.0
2.0
3.0
3.0
3.0
0.0
3.0
2.0
3.0
0.0
0.0
-1.0
0.0
0.0
0.0
0.0
5.0
4.0
4.0
2.0
1.0
0.0
0.0
1.0
2.0
3.0
2.0
3.0
4.0
3.0
3.0
5.0
8.0
12.0
14.0
14.0
10.0
5.0
4.0
0.0
0.0
2.0
1.0
0.0
0.0
0.0
-1.0
-1.0
1.0
2.0
11.0
23.0
22.0
35.0
48.0
38.0
29.0
47.0
75.0
107.0
139.0
157.0
165.0
144.0
65.0
11.0
-3.0
-14.0
-19.0
-18.0
-18.0
-21.0
-19.0
-16.0
-16.0
-18.0
-22.0
-20.0
-16.0
-15.0
-18.0
-18.0
-16.0
-17.0
-14.0
-13.0
-17.0
-15.0
-13.0
-19.0
-16.0
-15.0
-12.0
-16.0
-20.0
-16.0
-18.0
-22.0
-23.0
-22.0
-22.0
-22.0
-26.0
-28.0
-29.0
-31.0
-32.0
-33.0
-33.0
-30.0
-27.0
-28.0
-26.0
-19.0
-16.0
-13.0
-8.0
-4.0
-2.0
0.0
4.0
7.0
6.0
6.0
11.0
18.0
19.0
16.0
16.0
21.0
20.0
19.0
19.0
17.0
12.0
11.0
11.0
10.0
8.0
7.0
4.0
6.0
7.0
7.0
7.0
7.0
7.0
6.0
7.0
5.0
4.0
4.0
6.0
6.0
5.0
5.0
4.0
4.0
3.0
1.0
1.0
2.0
3.0
3.0
1.0
1.0
2.0
3.0
3.0
2.0
2.0
2.0
0.0
0.0
0.0
0.0
0.0
0.0
0.0
0.0
0.0
0.0
0.0
0.0
0.0
-3.0
-2.0
0.0
0.0
0.0
-1.0
-3.0
-1.0
-2.0
-3.0
-2.0
-2.0
0.0
0.0
1.0
3.0
4.0
1.0
-2.0
-5.0
-5.0
-4.0
-4.0
-4.0
-3.0
-3.0
-3.0
-3.0
-3.0
-5.0
-3.0
4.0
11.0
12.0
19.0
30.0
28.0
20.0
37.0
69.0
96.0
123.0
136.0
145.0
146.0
72.0
12.0
-7.0
-13.0
-21.0
-27.0
-25.0
-24.0
-26.0
-25.0
-25.0
-24.0
-24.0
-25.0
-24.0
-24.0
-24.0
-24.0
-24.0
-24.0
-24.0
-24.0
-23.0
-23.0
-23.0
-24.0
-23.0
-23.0
-24.0
-24.0
-24.0
-24.0
-24.0
-25.0
-25.0
-29.0
-29.0
-32.0
-34.0
-33.0
-36.0
-40.0
-39.0
-41.0
-42.0
-41.0
-41.0
-37.0
-30.0
-29.0
-25.0
-22.0
-15.0
-9.0
-4.0
-2.0
0.0
1.0
3.0
6.0
8.0
9.0
11.0
12.0
11.0
10.0
9.0
9.0
11.0
10.0
9.0
4.0
4.0
5.0
5.0
1.0
0.0
2.0
2.0
2.0
2.0
2.0
2.0
2.0
2.0
1.0
0.0
0.0
3.0
4.0
2.0
2.0
3.0
1.0
0.0
0.0
0.0
0.0
-1.0
-1.0
0.0
0.0
0.0
0.0
0.0
0.0
0.0
0.0
0.0
0.0
0.0
-2.0
-1.0
0.0
0.0
0.0
-1.0
0.0
0.0
0.0
0.0
0.0
-1.0
0.0
0.0
0.0
1.0
0.0
0.0
0.0
0.0
-1.0
-1.0
0.0
3.0
4.0
5.0
6.0
3.0
0.0
-2.0
-2.0
-2.0
-2.0
-1.0
-1.0
-2.0
-4.0
-3.0
-2.0
-2.0
0.0
7.0
15.0
14.0
25.0
34.0
32.0
27.0
42.0
71.0
100.0
127.0
145.0
148.0
139.0
61.0
6.0
-9.0
-15.0
-21.0
-23.0
-24.0
-24.0
-24.0
-25.0
-26.0
-24.0
-24.0
-24.0
-24.0
-24.0
-22.0
-22.0
-23.0
-23.0
-24.0
-24.0
-23.0
-21.0
-21.0
-22.0
-22.0
-23.0
-23.0
-24.0
-24.0
-23.0
-23.0
-25.0
-25.0
-29.0
-29.0
-33.0
-35.0
-39.0
-41.0
-33.0
-33.0
-33.0
-33.0
-33.0
-32.0
-31.0
-26.0
-22.0
-20.0
-16.0
-12.0
-4.0
-2.0
0.0
1.0
2.0
3.0
7.0
10.0
12.0
15.0
18.0
16.0
16.0
16.0
12.0
11.0
11.0
12.0
11.0
9.0
9.0
9.0
8.0
8.0
8.0
7.0
6.0
6.0
8.0
7.0
7.0
7.0
5.0
5.0
6.0
0.0
0.0
3.0
1.0
0.0
0.0
0.0
0.0
0.0
0.0
0.0
0.0
0.0
0.0
0.0
0.0
0.0
0.0
-2.0
-2.0
0.0
0.0
0.0
0.0
0.0
0.0
0.0
0.0
0.0
0.0
0.0
0.0
0.0
0.0
0.0
0.0
0.0
0.0
0.0
0.0
0.0
0.0
0.0
0.0
3.0
4.0
8.0
2.0
0.0
-3.0
-3.0
-1.0
-1.0
-3.0
-1.0
0.0
0.0
-1.0
-1.0
-1.0
1.0
7.0
11.0
16.0
29.0
40.0
34.0
28.0
41.0
67.0
95.0
121.0
140.0
146.0
136.0
64.0
6.0
-11.0
-21.0
-25.0
-24.0
-24.0
-28.0
-27.0
-25.0
-28.0
-26.0
-26.0
-26.0
-28.0
-30.0
-29.0
-30.0
-29.0
-29.0
-31.0
-32.0
-32.0
-30.0
-29.0
-29.0
-29.0
-29.0
-26.0
-28.0
-30.0
-29.0
-28.0
-28.0
-30.0
-31.0
-35.0
-34.0
-36.0
-41.0
-42.0
-41.0
-41.0
-41.0
-40.0
-38.0
-35.0
-39.0
-38.0
-32.0
-26.0
-26.0
-14.0
-12.0
-13.0
-12.0
-10.0
-4.0
0.0
1.0
3.0
3.0
3.0
4.0
4.0
5.0
5.0
3.0
3.0
4.0
1.0
-2.0
-3.0
-4.0
-6.0
-6.0
-7.0
-10.0
-10.0
-8.0
-7.0
-11.0
-13.0
-8.0
-8.0
-8.0
-8.0
-10.0
-11.0
-10.0
-8.0
-16.0
-20.0
-19.0
-10.0
-10.0
-10.0
-10.0
-13.0
-20.0
-20.0
-15.0
-14.0
-12.0
-12.0
-9.0
-8.0
-8.0
-6.0
-9.0
-11.0
-13.0
-12.0
-11.0
-7.0
-6.0
-7.0
-6.0
-8.0
-8.0
-6.0
-9.0
-11.0
-11.0
-9.0
-5.0
-4.0
-7.0
-13.0
-9.0
-8.0
-9.0
-2.0
1.0
-2.0
0.0
-3.0
-9.0
-10.0
-8.0
-17.0
-19.0
-16.0
-20.0
-20.0
-20.0
-19.0
-10.0
-10.0
-9.0
0.0
1.0
3.0
14.0
24.0
18.0
14.0
31.0
62.0
94.0
119.0
135.0
146.0
126.0
55.0
1.0
-19.0
-23.0
-25.0
-26.0
-29.0
-29.0
-32.0
-29.0
-30.0
-29.0
-32.0
-32.0
-29.0
-29.0
-22.0
-24.0
-24.0
-28.0
-23.0
-20.0
-24.0
-25.0
-21.0
-20.0
-25.0
-30.0
-32.0
-28.0
-24.0
-22.0
-23.0
-24.0
-26.0
-31.0
-34.0
-31.0
-30.0
-31.0
-30.0
-29.0
-32.0
-41.0
-43.0
-36.0
-26.0
-27.0
-31.0
-24.0
-20.0
-22.0
-14.0
-7.0
0.0
0.0
0.0
-2.0
5.0
9.0
11.0
10.0
5.0
11.0
13.0
3.0
3.0
7.0
11.0
4.0
4.0
5.0
5.0
12.0
15.0
11.0
8.0
3.0
-1.0
0.0
1.0
2.0
6.0
5.0
4.0
5.0
3.0
0.0
2.0
1.0
0.0
0.0
3.0
2.0
4.0
0.0
-2.0
0.0
0.0
0.0
1.0
4.0
10.0
0.0
1.0
3.0
-1.0
0.0
3.0
1.0
-1.0
-2.0
-2.0
0.0
0.0
0.0
3.0
1.0
1.0
4.0
2.0
0.0
0.0
0.0
0.0
3.0
7.0
9.0
4.0
-4.0
-6.0
0.0
5.0
9.0
10.0
9.0
4.0
2.0
5.0
1.0
-3.0
-2.0
1.0
0.0
-1.0
0.0
0.0
0.0
0.0
3.0
13.0
12.0
19.0
29.0
28.0
24.0
36.0
61.0
86.0
111.0
131.0
142.0
150.0
116.0
52.0
11.0
-2.0
-11.0
-20.0
-22.0
-23.0
-24.0
-22.0
-22.0
-24.0
-20.0
-15.0
-19.0
-21.0
-23.0
-23.0
-16.0
-16.0
-17.0
-15.0
-13.0
-21.0
-20.0
-12.0
-17.0
-14.0
-20.0
-20.0
-11.0
-20.0
-20.0
-22.0
-23.0
-27.0
-29.0
-27.0
-28.0
-25.0
-25.0
-32.0
-35.0
-31.0
-30.0
-28.0
-24.0
-22.0
-24.0
-28.0
-25.0
-28.0
-25.0
-18.0
-6.0
-3.0
-2.0
2.0
9.0
8.0
7.0
8.0
8.0
10.0
12.0
21.0
14.0
10.0
6.0
5.0
5.0
5.0
5.0
7.0
10.0
5.0
4.0
7.0
5.0
3.0
4.0
5.0
5.0
3.0
3.0
3.0
2.0
2.0
3.0
7.0
12.0
7.0
1.0
3.0
4.0
5.0
4.0
3.0
1.0
2.0
6.0
5.0
1.0
2.0
3.0
1.0
3.0
7.0
2.0
1.0
3.0
4.0
1.0
-1.0
1.0
6.0
5.0
1.0
5.0
9.0
6.0
1.0
-1.0
-1.0
0.0
3.0
4.0
5.0
3.0
1.0
1.0
4.0
6.0
9.0
9.0
4.0
4.0
6.0
5.0
0.0
0.0
4.0
4.0
1.0
1.0
4.0
4.0
11.0
4.0
-2.0
0.0
8.0
25.0
27.0
30.0
37.0
35.0
33.0
44.0
68.0
94.0
119.0
154.0
163.0
159.0
102.0
41.0
5.0
-8.0
-13.0
-16.0
-11.0
-11.0
-18.0
-25.0
-27.0
-21.0
-20.0
-20.0
-20.0
-19.0
-16.0
-12.0
-9.0
-8.0
-18.0
-18.0
-15.0
-21.0
-16.0
-16.0
-15.0
-12.0
-14.0
-14.0
-17.0
-4.0
-10.0
-17.0
-20.0
-24.0
-28.0
-23.0
-21.0
-20.0
-18.0
-23.0
-28.0
-30.0
-36.0
-34.0
-27.0
-24.0
-19.0
-13.0
-12.0
-9.0
-3.0
-2.0
-3.0
1.0
2.0
3.0
4.0
4.0
8.0
20.0
20.0
9.0
8.0
13.0
19.0
23.0
14.0
9.0
12.0
7.0
10.0
7.0
8.0
8.0
3.0
4.0
7.0
7.0
7.0
10.0
6.0
4.0
5.0
6.0
3.0
3.0
2.0
6.0
14.0
12.0
3.0
2.0
5.0
5.0
1.0
0.0
2.0
2.0
3.0
6.0
6.0
4.0
4.0
5.0
9.0
4.0
3.0
3.0
-2.0
3.0
4.0
7.0
4.0
2.0
2.0
3.0
1.0
1.0
3.0
6.0
3.0
0.0
-1.0
2.0
6.0
7.0
7.0
2.0
-1.0
2.0
10.0
10.0
7.0
13.0
13.0
4.0
0.0
0.0
2.0
0.0
-1.0
2.0
0.0
3.0
5.0
3.0
1.0
8.0
15.0
22.0
23.0
32.0
41.0
31.0
25.0
49.0
92.0
106.0
137.0
143.0
152.0
140.0
73.0
16.0
-2.0
-18.0
-27.0
-23.0
-18.0
-21.0
-24.0
-28.0
-26.0
-25.0
-26.0
-23.0
-17.0
-13.0
-12.0
-15.0
-19.0
-17.0
-17.0
-18.0
-16.0
-21.0
-23.0
-16.0
-5.0
-17.0
-21.0
-14.0
-20.0
-20.0
-14.0
-26.0
-31.0
-27.0
-20.0
-17.0
-28.0
-29.0
-29.0
-32.0
-31.0
-32.0
-31.0
-29.0
-23.0
-26.0
-24.0
-13.0
-6.0
-8.0
-15.0
-14.0
-5.0
0.0
0.0
0.0
4.0
8.0
10.0
16.0
22.0
25.0
23.0
10.0
8.0
11.0
12.0
8.0
3.0
4.0
10.0
17.0
20.0
8.0
7.0
5.0
3.0
5.0
6.0
4.0
1.0
7.0
9.0
5.0
4.0
4.0
3.0
8.0
5.0
3.0
3.0
2.0
6.0
9.0
5.0
1.0
0.0
1.0
5.0
6.0
2.0
0.0
4.0
8.0
7.0
4.0
1.0
2.0
7.0
16.0
7.0
3.0
0.0
7.0
3.0
0.0
2.0
4.0
4.0
5.0
8.0
10.0
9.0
4.0
0.0
0.0
0.0
3.0
6.0
6.0
7.0
8.0
12.0
20.0
15.0
6.0
2.0
1.0
1.0
2.0
4.0
2.0
0.0
1.0
1.0
1.0
1.0
11.0
25.0
24.0
25.0
34.0
39.0
31.0
35.0
48.0
79.0
114.0
140.0
155.0
172.0
112.0
40.0
1.0
-15.0
-22.0
-23.0
-17.0
-18.0
-21.0
-22.0
-25.0
-34.0
-31.0
-27.0
-17.0
-20.0
-26.0
-23.0
-21.0
-22.0
-22.0
-21.0
-21.0
-20.0
-18.0
-23.0
-26.0
-26.0
-24.0
-22.0
-21.0
-21.0
-18.0
-18.0
-21.0
-23.0
-27.0
-28.0
-25.0
-29.0
-28.0
-22.0
-14.0
-22.0
-32.0
-31.0
-29.0
-27.0
-23.0
-17.0
-12.0
-13.0
-10.0
-7.0
-2.0
1.0
6.0
8.0
3.0
2.0
6.0
14.0
15.0
14.0
18.0
15.0
9.0
8.0
8.0
9.0
10.0
8.0
7.0
7.0
10.0
10.0
8.0
7.0
1.0
3.0
5.0
6.0
7.0
5.0
2.0
5.0
5.0
6.0
6.0
4.0
5.0
7.0
7.0
4.0
3.0
1.0
1.0
6.0
4.0
1.0
0.0
-1.0
0.0
2.0
1.0
0.0
0.0
0.0
-3.0
0.0
2.0
3.0
1.0
0.0
0.0
0.0
2.0
2.0
2.0
0.0
0.0
-1.0
-2.0
0.0
1.0
0.0
1.0
3.0
7.0
0.0
-4.0
-4.0
5.0
7.0
4.0
6.0
1.0
-2.0
-3.0
0.0
1.0
0.0
0.0
-3.0
-7.0
-4.0
0.0
0.0
-1.0
3.0
12.0
15.0
17.0
22.0
25.0
26.0
32.0
53.0
80.0
106.0
126.0
141.0
148.0
113.0
42.0
1.0
-5.0
-12.0
-20.0
-20.0
-27.0
-31.0
-29.0
-25.0
-21.0
-21.0
-28.0
-26.0
-22.0
-23.0
-21.0
-21.0
-21.0
-25.0
-23.0
-23.0
-25.0
-25.0
-23.0
-19.0
-18.0
-22.0
-20.0
-16.0
-21.0
-29.0
-28.0
-25.0
-25.0
-31.0
-35.0
-32.0
-29.0
-29.0
-25.0
-33.0
-37.0
-32.0
-32.0
-26.0
-25.0
-32.0
-28.0
-26.0
-20.0
-22.0
-12.0
-10.0
-1.0
-2.0
0.0
4.0
7.0
13.0
9.0
5.0
6.0
7.0
8.0
18.0
21.0
19.0
12.0
8.0
8.0
8.0
8.0
7.0
4.0
2.0
7.0
7.0
4.0
1.0
3.0
4.0
4.0
7.0
10.0
7.0
0.0
0.0
3.0
5.0
4.0
6.0
8.0
5.0
0.0
1.0
3.0
6.0
1.0
4.0
7.0
4.0
2.0
2.0
1.0
3.0
1.0
0.0
5.0
4.0
3.0
6.0
4.0
2.0
0.0
-2.0
-3.0
0.0
2.0
5.0
5.0
2.0
-4.0
-3.0
0.0
0.0
0.0
0.0
2.0
-1.0
0.0
1.0
5.0
7.0
16.0
10.0
-4.0
-9.0
-3.0
-1.0
1.0
-2.0
-5.0
-2.0
1.0
1.0
-1.0
-1.0
1.0
6.0
11.0
15.0
20.0
24.0
27.0
34.0
48.0
73.0
99.0
122.0
137.0
150.0
139.0
73.0
14.0
-12.0
-21.0
-17.0
-15.0
-23.0
-29.0
-29.0
-29.0
-29.0
-28.0
-24.0
-24.0
-26.0
-24.0
-24.0
-24.0
-25.0
-25.0
-24.0
-17.0
-24.0
-26.0
-28.0
-31.0
-29.0
-24.0
-22.0
-22.0
-21.0
-22.0
-24.0
-26.0
-26.0
-32.0
-37.0
-34.0
-31.0
-32.0
-33.0
-31.0
-29.0
-27.0
-25.0
-28.0
-31.0
-24.0
-23.0
-20.0
-21.0
-18.0
-11.0
-7.0
-1.0
1.0
4.0
0.0
6.0
12.0
6.0
7.0
13.0
9.0
8.0
11.0
20.0
15.0
11.0
11.0
9.0
6.0
6.0
6.0
4.0
6.0
9.0
7.0
6.0
6.0
3.0
3.0
4.0
4.0
6.0
6.0
7.0
9.0
5.0
1.0
3.0
4.0
4.0
3.0
3.0
9.0
9.0
7.0
0.0
0.0
3.0
6.0
3.0
0.0
5.0
0.0
0.0
1.0
0.0
1.0
2.0
2.0
0.0
1.0
3.0
2.0
0.0
0.0
2.0
4.0
3.0
1.0
-3.0
-4.0
1.0
1.0
-1.0
0.0
1.0
6.0
10.0
7.0
7.0
5.0
0.0
3.0
2.0
-2.0
0.0
0.0
-1.0
1.0
8.0
0.0
-7.0
-2.0
3.0
12.0
20.0
29.0
40.0
36.0
30.0
38.0
58.0
85.0
119.0
146.0
156.0
158.0
113.0
43.0
2.0
-10.0
-15.0
-20.0
-20.0
-22.0
-22.0
-19.0
-20.0
-20.0
-21.0
-16.0
-12.0
-19.0
-30.0
-33.0
-28.0
-22.0
-21.0
-16.0
-23.0
-25.0
-23.0
-23.0
-24.0
-21.0
-12.0
-17.0
-21.0
-24.0
-25.0
-25.0
-25.0
-26.0
-30.0
-29.0
-29.0
-29.0
-29.0
-27.0
-25.0
-27.0
-30.0
-32.0
-36.0
-39.0
-34.0
-27.0
-19.0
-12.0
-8.0
-4.0
-3.0
-2.0
1.0
6.0
4.0
3.0
5.0
9.0
9.0
14.0
21.0
12.0
12.0
12.0
12.0
6.0
4.0
5.0
3.0
3.0
3.0
4.0
4.0
2.0
5.0
8.0
10.0
6.0
1.0
1.0
5.0
6.0
1.0
0.0
1.0
4.0
6.0
2.0
0.0
-1.0
0.0
2.0
4.0
4.0
-1.0
-1.0
0.0
1.0
1.0
0.0
-3.0
-1.0
3.0
-2.0
-2.0
-1.0
-2.0
5.0
3.0
2.0
2.0
0.0
0.0
3.0
0.0
-1.0
-2.0
3.0
4.0
1.0
0.0
0.0
-1.0
-2.0
-2.0
-1.0
0.0
1.0
4.0
8.0
13.0
10.0
0.0
-2.0
-2.0
-2.0
-1.0
3.0
1.0
-3.0
-6.0
-1.0
0.0
0.0
-2.0
-1.0
7.0
23.0
22.0
27.0
37.0
32.0
26.0
42.0
73.0
101.0
132.0
152.0
173.0
136.0
60.0
13.0
-3.0
-19.0
-26.0
-24.0
-17.0
-17.0
-25.0
-29.0
-27.0
-25.0
-25.0
-24.0
-23.0
-23.0
-24.0
-21.0
-21.0
-23.0
-19.0
-17.0
-24.0
-33.0
-31.0
-22.0
-20.0
-20.0
-21.0
-22.0
-20.0
-21.0
-24.0
-28.0
-30.0
-25.0
-28.0
-27.0
-36.0
-40.0
-34.0
-36.0
-35.0
-32.0
-29.0
-31.0
-26.0
-24.0
-24.0
-21.0
-15.0
-9.0
-6.0
-4.0
-2.0
-1.0
0.0
5.0
14.0
20.0
13.0
7.0
10.0
18.0
18.0
5.0
8.0
12.0
5.0
6.0
5.0
5.0
4.0
1.0
5.0
8.0
3.0
0.0
0.0
8.0
3.0
0.0
6.0
6.0
0.0
0.0
2.0
2.0
0.0
3.0
2.0
-1.0
-1.0
2.0
4.0
2.0
0.0
0.0
0.0
0.0
0.0
0.0
-1.0
-3.0
